# 
# Output from RAtom program.
# 
# Total radial electron density.
# The first column contains radius $r$ in bohr units.
# The second column holds $\rho(r)$.
# The third column holds $\tilde{\rho}(r) = \rho(r) / (\pi * r * r)$
# 
# Use this file with gnuplot to create the plot.
# 
# R     Rho     RhoTilde
#
0.000000e+00 0.000000e+00 3.956841e+05
1.678467e-04 1.362792e-01 3.849409e+05
3.356934e-04 5.303168e-01 3.744898e+05
5.035400e-04 1.160819e+00 3.643230e+05
6.713867e-04 2.007657e+00 3.544330e+05
8.392334e-04 3.051813e+00 3.448122e+05
1.007080e-03 4.275335e+00 3.354535e+05
1.174927e-03 5.661282e+00 3.263498e+05
1.342773e-03 7.193683e+00 3.174943e+05
1.510620e-03 8.857492e+00 3.088804e+05
1.678467e-03 1.063854e+01 3.005016e+05
1.846313e-03 1.252351e+01 2.923515e+05
2.014160e-03 1.449987e+01 2.844240e+05
2.182007e-03 1.655587e+01 2.767132e+05
2.349854e-03 1.868046e+01 2.692131e+05
2.517700e-03 2.086333e+01 2.619182e+05
2.685547e-03 2.309478e+01 2.548229e+05
2.853394e-03 2.536577e+01 2.479219e+05
3.021240e-03 2.766786e+01 2.412099e+05
3.189087e-03 2.999315e+01 2.346818e+05
3.356934e-03 3.233431e+01 2.283327e+05
3.524780e-03 3.468451e+01 2.221578e+05
3.692627e-03 3.703741e+01 2.161523e+05
3.860474e-03 3.938715e+01 2.103117e+05
4.028320e-03 4.172829e+01 2.046316e+05
4.196167e-03 4.405581e+01 1.991076e+05
4.364014e-03 4.636509e+01 1.937354e+05
4.531860e-03 4.865190e+01 1.885111e+05
4.699707e-03 5.091235e+01 1.834306e+05
4.867554e-03 5.314288e+01 1.784899e+05
5.035400e-03 5.534027e+01 1.736854e+05
5.203247e-03 5.750160e+01 1.690134e+05
5.371094e-03 5.962421e+01 1.644702e+05
5.538940e-03 6.170574e+01 1.600524e+05
5.706787e-03 6.374407e+01 1.557566e+05
5.874634e-03 6.573732e+01 1.515795e+05
6.042480e-03 6.768383e+01 1.475178e+05
6.210327e-03 6.958218e+01 1.435685e+05
6.378174e-03 7.143112e+01 1.397285e+05
6.546021e-03 7.322960e+01 1.359947e+05
6.713867e-03 7.497676e+01 1.323644e+05
6.881714e-03 7.667189e+01 1.288348e+05
7.049561e-03 7.831443e+01 1.254030e+05
7.217407e-03 7.990400e+01 1.220664e+05
7.385254e-03 8.144032e+01 1.188225e+05
7.553101e-03 8.292325e+01 1.156687e+05
7.720947e-03 8.435279e+01 1.126026e+05
7.888794e-03 8.572901e+01 1.096217e+05
8.056641e-03 8.705211e+01 1.067238e+05
8.224487e-03 8.832240e+01 1.039066e+05
8.392334e-03 8.954025e+01 1.011679e+05
8.560181e-03 9.070611e+01 9.850558e+04
8.728027e-03 9.182054e+01 9.591749e+04
8.895874e-03 9.288415e+01 9.340164e+04
9.063721e-03 9.389759e+01 9.095605e+04
9.231567e-03 9.486162e+01 8.857880e+04
9.399414e-03 9.577701e+01 8.626802e+04
9.567261e-03 9.664460e+01 8.402190e+04
9.735107e-03 9.746527e+01 8.183866e+04
9.902954e-03 9.823993e+01 7.971658e+04
1.007080e-02 9.896955e+01 7.765398e+04
1.023865e-02 9.965510e+01 7.564922e+04
1.040649e-02 1.002976e+02 7.370073e+04
1.057434e-02 1.008981e+02 7.180696e+04
1.074219e-02 1.014577e+02 6.996639e+04
1.091003e-02 1.019773e+02 6.817758e+04
1.107788e-02 1.024582e+02 6.643908e+04
1.124573e-02 1.029015e+02 6.474953e+04
1.141357e-02 1.033081e+02 6.310756e+04
1.158142e-02 1.036794e+02 6.151186e+04
1.174927e-02 1.040163e+02 5.996117e+04
1.191711e-02 1.043201e+02 5.845423e+04
1.208496e-02 1.045918e+02 5.698983e+04
1.225281e-02 1.048327e+02 5.556681e+04
1.242065e-02 1.050437e+02 5.418401e+04
1.258850e-02 1.052261e+02 5.284032e+04
1.275635e-02 1.053809e+02 5.153466e+04
1.292419e-02 1.055093e+02 5.026596e+04
1.309204e-02 1.056124e+02 4.903321e+04
1.325989e-02 1.056913e+02 4.783541e+04
1.342773e-02 1.057470e+02 4.667158e+04
1.376343e-02 1.057931e+02 4.444208e+04
1.409912e-02 1.057593e+02 4.233746e+04
1.443481e-02 1.056537e+02 4.035084e+04
1.477051e-02 1.054842e+02 3.847571e+04
1.510620e-02 1.052583e+02 3.670591e+04
1.544189e-02 1.049834e+02 3.503561e+04
1.577759e-02 1.046665e+02 3.345929e+04
1.611328e-02 1.043143e+02 3.197172e+04
1.644897e-02 1.039332e+02 3.056798e+04
1.678467e-02 1.035292e+02 2.924337e+04
1.695251e-02 1.033204e+02 2.860934e+04
1.712036e-02 1.031080e+02 2.799347e+04
1.728821e-02 1.028927e+02 2.739522e+04
1.745605e-02 1.026751e+02 2.681409e+04
1.762390e-02 1.024558e+02 2.624960e+04
1.779175e-02 1.022355e+02 2.570128e+04
1.795959e-02 1.020147e+02 2.516865e+04
1.812744e-02 1.017940e+02 2.465127e+04
1.829529e-02 1.015739e+02 2.414871e+04
1.846313e-02 1.013550e+02 2.366054e+04
1.863098e-02 1.011378e+02 2.318634e+04
1.879883e-02 1.009227e+02 2.272571e+04
1.896667e-02 1.007103e+02 2.227827e+04
1.913452e-02 1.005009e+02 2.184363e+04
1.930237e-02 1.002950e+02 2.142142e+04
1.947021e-02 1.000930e+02 2.101128e+04
1.963806e-02 9.989541e+01 2.061287e+04
1.980591e-02 9.970248e+01 2.022584e+04
1.997375e-02 9.951460e+01 1.984986e+04
2.014160e-02 9.933213e+01 1.948462e+04
2.047729e-02 9.898469e+01 1.878508e+04
2.081299e-02 9.866259e+01 1.812482e+04
2.114868e-02 9.836801e+01 1.750159e+04
2.148438e-02 9.810290e+01 1.691323e+04
2.182007e-02 9.786894e+01 1.635772e+04
2.215576e-02 9.766764e+01 1.583315e+04
2.249146e-02 9.750025e+01 1.533772e+04
2.282715e-02 9.736784e+01 1.486970e+04
2.316284e-02 9.727130e+01 1.442750e+04
2.349854e-02 9.721131e+01 1.400959e+04
2.383423e-02 9.718841e+01 1.361452e+04
2.416992e-02 9.720294e+01 1.324095e+04
2.450562e-02 9.725513e+01 1.288758e+04
2.484131e-02 9.734502e+01 1.255321e+04
2.517700e-02 9.747255e+01 1.223670e+04
2.551270e-02 9.763753e+01 1.193697e+04
2.584839e-02 9.783962e+01 1.165301e+04
2.618408e-02 9.807842e+01 1.138384e+04
2.651978e-02 9.835338e+01 1.112858e+04
2.685547e-02 9.866390e+01 1.088637e+04
2.719116e-02 9.900925e+01 1.065640e+04
2.752686e-02 9.938866e+01 1.043792e+04
2.786255e-02 9.980127e+01 1.023021e+04
2.819824e-02 1.002462e+02 1.003261e+04
2.853394e-02 1.007223e+02 9.844474e+03
2.886963e-02 1.012287e+02 9.665216e+03
2.920532e-02 1.017643e+02 9.494273e+03
2.954102e-02 1.023280e+02 9.331117e+03
2.987671e-02 1.029185e+02 9.175252e+03
3.021240e-02 1.035347e+02 9.026211e+03
3.054810e-02 1.041754e+02 8.883556e+03
3.088379e-02 1.048392e+02 8.746874e+03
3.121948e-02 1.055251e+02 8.615779e+03
3.155518e-02 1.062317e+02 8.489907e+03
3.189087e-02 1.069576e+02 8.368916e+03
3.222656e-02 1.077017e+02 8.252486e+03
3.256226e-02 1.084626e+02 8.140317e+03
3.289795e-02 1.092391e+02 8.032127e+03
3.323364e-02 1.100298e+02 7.927652e+03
3.356934e-02 1.108335e+02 7.826644e+03
3.390503e-02 1.116488e+02 7.728872e+03
3.424072e-02 1.124746e+02 7.634119e+03
3.457642e-02 1.133096e+02 7.542183e+03
3.491211e-02 1.141526e+02 7.452873e+03
3.524780e-02 1.150023e+02 7.366013e+03
3.558350e-02 1.158575e+02 7.281437e+03
3.591919e-02 1.167171e+02 7.198991e+03
3.625488e-02 1.175800e+02 7.118531e+03
3.659058e-02 1.184449e+02 7.039923e+03
3.692627e-02 1.193108e+02 6.963042e+03
3.726196e-02 1.201766e+02 6.887771e+03
3.759766e-02 1.210413e+02 6.814002e+03
3.793335e-02 1.219039e+02 6.741636e+03
3.826904e-02 1.227633e+02 6.670578e+03
3.860474e-02 1.236186e+02 6.600743e+03
3.894043e-02 1.244689e+02 6.532049e+03
3.927612e-02 1.253132e+02 6.464424e+03
3.961182e-02 1.261508e+02 6.397798e+03
3.994751e-02 1.269807e+02 6.332107e+03
4.028320e-02 1.278021e+02 6.267295e+03
4.061890e-02 1.286143e+02 6.203307e+03
4.095459e-02 1.294166e+02 6.140093e+03
4.129028e-02 1.302082e+02 6.077608e+03
4.162598e-02 1.309884e+02 6.015811e+03
4.196167e-02 1.317567e+02 5.954663e+03
4.229736e-02 1.325123e+02 5.894129e+03
4.263306e-02 1.332547e+02 5.834179e+03
4.296875e-02 1.339834e+02 5.774782e+03
4.330444e-02 1.346978e+02 5.715913e+03
4.364014e-02 1.353974e+02 5.657549e+03
4.397583e-02 1.360819e+02 5.599668e+03
4.431152e-02 1.367506e+02 5.542250e+03
4.464722e-02 1.374034e+02 5.485280e+03
4.498291e-02 1.380397e+02 5.428740e+03
4.531860e-02 1.386593e+02 5.372618e+03
4.565430e-02 1.392618e+02 5.316902e+03
4.598999e-02 1.398469e+02 5.261582e+03
4.632568e-02 1.404144e+02 5.206647e+03
4.666138e-02 1.409641e+02 5.152091e+03
4.699707e-02 1.414957e+02 5.097906e+03
4.733276e-02 1.420091e+02 5.044087e+03
4.766846e-02 1.425041e+02 4.990629e+03
4.800415e-02 1.429806e+02 4.937528e+03
4.833984e-02 1.434384e+02 4.884782e+03
4.867554e-02 1.438776e+02 4.832388e+03
4.901123e-02 1.442980e+02 4.780343e+03
4.934692e-02 1.446995e+02 4.728648e+03
4.968262e-02 1.450822e+02 4.677302e+03
5.001831e-02 1.454461e+02 4.626305e+03
5.035400e-02 1.457912e+02 4.575657e+03
5.068970e-02 1.461175e+02 4.525359e+03
5.102539e-02 1.464251e+02 4.475412e+03
5.136108e-02 1.467141e+02 4.425819e+03
5.169678e-02 1.469845e+02 4.376579e+03
5.203247e-02 1.472365e+02 4.327696e+03
5.236816e-02 1.474702e+02 4.279172e+03
5.270386e-02 1.476857e+02 4.231009e+03
5.303955e-02 1.478833e+02 4.183209e+03
5.337524e-02 1.480630e+02 4.135775e+03
5.371094e-02 1.482250e+02 4.088709e+03
5.404663e-02 1.483696e+02 4.042015e+03
5.438232e-02 1.484970e+02 3.995694e+03
5.471802e-02 1.486073e+02 3.949750e+03
5.505371e-02 1.487009e+02 3.904185e+03
5.538940e-02 1.487779e+02 3.859003e+03
5.572510e-02 1.488386e+02 3.814204e+03
5.606079e-02 1.488833e+02 3.769793e+03
5.639648e-02 1.489122e+02 3.725772e+03
5.673218e-02 1.489256e+02 3.682143e+03
5.706787e-02 1.489239e+02 3.638908e+03
5.740356e-02 1.489072e+02 3.596071e+03
5.773926e-02 1.488760e+02 3.553632e+03
5.807495e-02 1.488305e+02 3.511594e+03
5.841064e-02 1.487710e+02 3.469959e+03
5.874634e-02 1.486978e+02 3.428729e+03
5.908203e-02 1.486113e+02 3.387905e+03
5.941772e-02 1.485119e+02 3.347490e+03
5.975342e-02 1.483997e+02 3.307484e+03
6.008911e-02 1.482752e+02 3.267888e+03
6.042480e-02 1.481388e+02 3.228705e+03
6.109619e-02 1.478312e+02 3.151578e+03
6.176758e-02 1.474799e+02 3.076109e+03
6.243896e-02 1.470875e+02 3.002302e+03
6.311035e-02 1.466568e+02 2.930159e+03
6.378174e-02 1.461908e+02 2.859680e+03
6.445312e-02 1.456921e+02 2.790862e+03
6.512451e-02 1.451637e+02 2.723699e+03
6.579590e-02 1.446082e+02 2.658186e+03
6.646729e-02 1.440283e+02 2.594312e+03
6.713867e-02 1.434269e+02 2.532067e+03
6.747437e-02 1.431189e+02 2.501552e+03
6.781006e-02 1.428065e+02 2.471438e+03
6.814575e-02 1.424900e+02 2.441726e+03
6.848145e-02 1.421697e+02 2.412411e+03
6.881714e-02 1.418460e+02 2.383493e+03
6.915283e-02 1.415191e+02 2.354969e+03
6.948853e-02 1.411894e+02 2.326837e+03
6.982422e-02 1.408571e+02 2.299095e+03
7.015991e-02 1.405227e+02 2.271739e+03
7.049561e-02 1.401863e+02 2.244768e+03
7.057953e-02 1.401019e+02 2.238085e+03
7.066345e-02 1.400174e+02 2.231426e+03
7.074738e-02 1.399328e+02 2.224790e+03
7.083130e-02 1.398482e+02 2.218179e+03
7.091522e-02 1.397634e+02 2.211591e+03
7.099915e-02 1.396786e+02 2.205027e+03
7.108307e-02 1.395937e+02 2.198486e+03
7.116699e-02 1.395088e+02 2.191969e+03
7.125092e-02 1.394237e+02 2.185475e+03
7.133484e-02 1.393386e+02 2.179005e+03
7.137680e-02 1.392960e+02 2.175779e+03
7.141876e-02 1.392535e+02 2.172559e+03
7.146072e-02 1.392109e+02 2.169344e+03
7.150269e-02 1.391682e+02 2.166135e+03
7.154465e-02 1.391256e+02 2.162932e+03
7.158661e-02 1.390830e+02 2.159735e+03
7.162857e-02 1.390403e+02 2.156544e+03
7.167053e-02 1.389977e+02 2.153359e+03
7.171249e-02 1.389550e+02 2.150179e+03
7.175446e-02 1.389123e+02 2.147006e+03
7.179642e-02 1.388696e+02 2.143838e+03
7.183838e-02 1.388269e+02 2.140675e+03
7.188034e-02 1.387842e+02 2.137519e+03
7.192230e-02 1.387415e+02 2.134369e+03
7.196426e-02 1.386988e+02 2.131224e+03
7.200623e-02 1.386561e+02 2.128085e+03
7.204819e-02 1.386133e+02 2.124951e+03
7.209015e-02 1.385706e+02 2.121824e+03
7.213211e-02 1.385278e+02 2.118702e+03
7.217407e-02 1.384851e+02 2.115586e+03
7.234192e-02 1.383141e+02 2.103180e+03
7.250977e-02 1.381430e+02 2.090865e+03
7.267761e-02 1.379719e+02 2.078641e+03
7.284546e-02 1.378009e+02 2.066508e+03
7.301331e-02 1.376299e+02 2.054465e+03
7.318115e-02 1.374590e+02 2.042513e+03
7.334900e-02 1.372882e+02 2.030650e+03
7.351685e-02 1.371176e+02 2.018876e+03
7.368469e-02 1.369472e+02 2.007191e+03
7.385254e-02 1.367770e+02 1.995594e+03
7.452393e-02 1.360989e+02 1.950083e+03
7.519531e-02 1.354266e+02 1.905954e+03
7.586670e-02 1.347618e+02 1.863179e+03
7.653809e-02 1.341062e+02 1.821729e+03
7.720947e-02 1.334615e+02 1.781578e+03
7.788086e-02 1.328290e+02 1.742696e+03
7.855225e-02 1.322102e+02 1.705053e+03
7.922363e-02 1.316065e+02 1.668622e+03
7.989502e-02 1.310190e+02 1.633371e+03
8.056641e-02 1.304489e+02 1.599273e+03
8.123779e-02 1.298972e+02 1.566296e+03
8.190918e-02 1.293650e+02 1.534411e+03
8.258057e-02 1.288530e+02 1.503588e+03
8.325195e-02 1.283621e+02 1.473799e+03
8.392334e-02 1.278931e+02 1.445013e+03
8.459473e-02 1.274465e+02 1.417201e+03
8.526611e-02 1.270229e+02 1.390334e+03
8.593750e-02 1.266228e+02 1.364384e+03
8.660889e-02 1.262465e+02 1.339321e+03
8.728027e-02 1.258946e+02 1.315119e+03
8.795166e-02 1.255671e+02 1.291749e+03
8.862305e-02 1.252644e+02 1.269183e+03
8.929443e-02 1.249865e+02 1.247396e+03
8.996582e-02 1.247335e+02 1.226360e+03
9.063721e-02 1.245054e+02 1.206050e+03
9.130859e-02 1.243022e+02 1.186440e+03
9.197998e-02 1.241238e+02 1.167505e+03
9.265137e-02 1.239700e+02 1.149220e+03
9.332275e-02 1.238407e+02 1.131562e+03
9.399414e-02 1.237355e+02 1.114507e+03
9.533691e-02 1.235963e+02 1.082115e+03
9.667969e-02 1.235496e+02 1.051868e+03
9.802246e-02 1.235919e+02 1.023596e+03
9.936523e-02 1.237189e+02 9.971429e+02
1.007080e-01 1.239263e+02 9.723567e+02
1.020508e-01 1.242090e+02 9.490967e+02
1.033936e-01 1.245616e+02 9.272301e+02
1.047363e-01 1.249787e+02 9.066328e+02
1.060791e-01 1.254544e+02 8.871891e+02
1.074219e-01 1.259826e+02 8.687912e+02
1.087646e-01 1.265575e+02 8.513389e+02
1.101074e-01 1.271728e+02 8.347397e+02
1.114502e-01 1.278223e+02 8.189082e+02
1.127930e-01 1.285001e+02 8.037657e+02
1.141357e-01 1.292000e+02 7.892401e+02
1.154785e-01 1.299160e+02 7.752655e+02
1.168213e-01 1.306425e+02 7.617818e+02
1.181641e-01 1.313737e+02 7.487342e+02
1.195068e-01 1.321042e+02 7.360736e+02
1.208496e-01 1.328287e+02 7.237551e+02
1.215210e-01 1.331872e+02 7.177116e+02
1.221924e-01 1.335423e+02 7.117389e+02
1.228638e-01 1.338935e+02 7.058329e+02
1.235352e-01 1.342401e+02 6.999892e+02
1.242065e-01 1.345817e+02 6.942042e+02
1.248779e-01 1.349177e+02 6.884742e+02
1.255493e-01 1.352475e+02 6.827958e+02
1.262207e-01 1.355707e+02 6.771657e+02
1.268921e-01 1.358868e+02 6.715810e+02
1.275635e-01 1.361953e+02 6.660389e+02
1.282349e-01 1.364957e+02 6.605368e+02
1.289062e-01 1.367877e+02 6.550723e+02
1.295776e-01 1.370707e+02 6.496430e+02
1.302490e-01 1.373445e+02 6.442470e+02
1.309204e-01 1.376086e+02 6.388823e+02
1.315918e-01 1.378626e+02 6.335471e+02
1.322632e-01 1.381062e+02 6.282397e+02
1.329346e-01 1.383391e+02 6.229587e+02
1.336060e-01 1.385610e+02 6.177028e+02
1.342773e-01 1.387716e+02 6.124705e+02
1.349487e-01 1.389706e+02 6.072610e+02
1.356201e-01 1.391577e+02 6.020730e+02
1.362915e-01 1.393328e+02 5.969058e+02
1.369629e-01 1.394955e+02 5.917586e+02
1.376343e-01 1.396458e+02 5.866305e+02
1.383057e-01 1.397833e+02 5.815211e+02
1.389771e-01 1.399080e+02 5.764298e+02
1.396484e-01 1.400196e+02 5.713561e+02
1.403198e-01 1.401181e+02 5.662997e+02
1.409912e-01 1.402033e+02 5.612603e+02
1.411591e-01 1.402225e+02 5.600031e+02
1.413269e-01 1.402409e+02 5.587469e+02
1.414948e-01 1.402584e+02 5.574917e+02
1.416626e-01 1.402751e+02 5.562376e+02
1.418304e-01 1.402910e+02 5.549846e+02
1.419983e-01 1.403060e+02 5.537326e+02
1.421661e-01 1.403201e+02 5.524816e+02
1.423340e-01 1.403334e+02 5.512316e+02
1.425018e-01 1.403459e+02 5.499827e+02
1.426697e-01 1.403575e+02 5.487348e+02
1.428375e-01 1.403683e+02 5.474879e+02
1.430054e-01 1.403782e+02 5.462421e+02
1.431732e-01 1.403873e+02 5.449973e+02
1.433411e-01 1.403955e+02 5.437535e+02
1.435089e-01 1.404029e+02 5.425108e+02
1.436768e-01 1.404094e+02 5.412691e+02
1.438446e-01 1.404150e+02 5.400284e+02
1.440125e-01 1.404198e+02 5.387887e+02
1.441803e-01 1.404238e+02 5.375501e+02
1.443481e-01 1.404269e+02 5.363125e+02
1.446838e-01 1.404305e+02 5.338404e+02
1.450195e-01 1.404306e+02 5.313724e+02
1.453552e-01 1.404274e+02 5.289086e+02
1.456909e-01 1.404207e+02 5.264490e+02
1.460266e-01 1.404106e+02 5.239936e+02
1.463623e-01 1.403970e+02 5.215424e+02
1.466980e-01 1.403801e+02 5.190954e+02
1.470337e-01 1.403597e+02 5.166527e+02
1.473694e-01 1.403358e+02 5.142143e+02
1.477051e-01 1.403086e+02 5.117802e+02
1.483765e-01 1.402438e+02 5.069252e+02
1.490479e-01 1.401655e+02 5.020879e+02
1.497192e-01 1.400736e+02 4.972686e+02
1.503906e-01 1.399681e+02 4.924678e+02
1.510620e-01 1.398493e+02 4.876856e+02
1.517334e-01 1.397172e+02 4.829226e+02
1.524048e-01 1.395718e+02 4.781792e+02
1.530762e-01 1.394133e+02 4.734556e+02
1.537476e-01 1.392419e+02 4.687525e+02
1.544189e-01 1.390576e+02 4.640701e+02
1.550903e-01 1.388605e+02 4.594090e+02
1.557617e-01 1.386509e+02 4.547696e+02
1.564331e-01 1.384289e+02 4.501524e+02
1.571045e-01 1.381946e+02 4.455579e+02
1.577759e-01 1.379483e+02 4.409865e+02
1.584473e-01 1.376901e+02 4.364387e+02
1.591187e-01 1.374201e+02 4.319150e+02
1.597900e-01 1.371387e+02 4.274158e+02
1.604614e-01 1.368459e+02 4.229417e+02
1.611328e-01 1.365420e+02 4.184932e+02
1.624756e-01 1.359017e+02 4.096744e+02
1.638184e-01 1.352196e+02 4.009634e+02
1.651611e-01 1.344975e+02 3.923636e+02
1.665039e-01 1.337373e+02 3.838786e+02
1.678467e-01 1.329410e+02 3.755118e+02
1.691895e-01 1.321105e+02 3.672662e+02
1.705322e-01 1.312480e+02 3.591450e+02
1.718750e-01 1.303554e+02 3.511509e+02
1.732178e-01 1.294350e+02 3.432866e+02
1.745605e-01 1.284887e+02 3.355544e+02
1.752319e-01 1.280066e+02 3.317386e+02
1.759033e-01 1.275188e+02 3.279566e+02
1.765747e-01 1.270257e+02 3.242087e+02
1.772461e-01 1.265274e+02 3.204952e+02
1.779175e-01 1.260243e+02 3.168161e+02
1.785889e-01 1.255166e+02 3.131718e+02
1.792603e-01 1.250046e+02 3.095624e+02
1.799316e-01 1.244886e+02 3.059881e+02
1.806030e-01 1.239687e+02 3.024491e+02
1.812744e-01 1.234454e+02 2.989454e+02
1.819458e-01 1.229187e+02 2.954772e+02
1.826172e-01 1.223890e+02 2.920447e+02
1.832886e-01 1.218566e+02 2.886479e+02
1.839600e-01 1.213217e+02 2.852870e+02
1.846313e-01 1.207845e+02 2.819619e+02
1.853027e-01 1.202453e+02 2.786728e+02
1.859741e-01 1.197044e+02 2.754198e+02
1.866455e-01 1.191619e+02 2.722028e+02
1.873169e-01 1.186182e+02 2.690219e+02
1.879883e-01 1.180735e+02 2.658770e+02
1.893311e-01 1.169818e+02 2.596957e+02
1.906738e-01 1.158889e+02 2.536586e+02
1.920166e-01 1.147964e+02 2.477655e+02
1.933594e-01 1.137062e+02 2.420158e+02
1.947021e-01 1.126199e+02 2.364089e+02
1.960449e-01 1.115393e+02 2.309440e+02
1.973877e-01 1.104658e+02 2.256201e+02
1.987305e-01 1.094010e+02 2.204360e+02
2.000732e-01 1.083464e+02 2.153906e+02
2.014160e-01 1.073034e+02 2.104823e+02
2.027588e-01 1.062733e+02 2.057098e+02
2.041016e-01 1.052574e+02 2.010713e+02
2.054443e-01 1.042569e+02 1.965651e+02
2.067871e-01 1.032729e+02 1.921895e+02
2.081299e-01 1.023066e+02 1.879424e+02
2.094727e-01 1.013589e+02 1.838219e+02
2.108154e-01 1.004308e+02 1.798258e+02
2.121582e-01 9.952314e+01 1.759521e+02
2.135010e-01 9.863682e+01 1.721985e+02
2.148438e-01 9.777258e+01 1.685628e+02
2.161865e-01 9.693108e+01 1.650426e+02
2.175293e-01 9.611297e+01 1.616355e+02
2.188721e-01 9.531883e+01 1.583391e+02
2.202148e-01 9.454916e+01 1.551510e+02
2.215576e-01 9.380443e+01 1.520688e+02
2.229004e-01 9.308504e+01 1.490900e+02
2.242432e-01 9.239133e+01 1.462120e+02
2.255859e-01 9.172359e+01 1.434324e+02
2.269287e-01 9.108206e+01 1.407486e+02
2.282715e-01 9.046693e+01 1.381582e+02
2.296143e-01 8.987832e+01 1.356586e+02
2.309570e-01 8.931632e+01 1.332474e+02
2.322998e-01 8.878098e+01 1.309219e+02
2.336426e-01 8.827229e+01 1.286799e+02
2.349854e-01 8.779021e+01 1.265187e+02
2.363281e-01 8.733464e+01 1.244359e+02
2.376709e-01 8.690544e+01 1.224292e+02
2.390137e-01 8.650247e+01 1.204961e+02
2.403564e-01 8.612550e+01 1.186343e+02
2.416992e-01 8.577431e+01 1.168414e+02
2.430420e-01 8.544861e+01 1.151152e+02
2.443848e-01 8.514811e+01 1.134532e+02
2.457275e-01 8.487246e+01 1.118534e+02
2.470703e-01 8.462131e+01 1.103135e+02
2.484131e-01 8.439426e+01 1.088314e+02
2.497559e-01 8.419090e+01 1.074049e+02
2.510986e-01 8.401080e+01 1.060319e+02
2.524414e-01 8.385348e+01 1.047105e+02
2.537842e-01 8.371848e+01 1.034385e+02
2.551270e-01 8.360528e+01 1.022142e+02
2.564697e-01 8.351338e+01 1.010355e+02
2.578125e-01 8.344224e+01 9.990061e+01
2.591553e-01 8.339131e+01 9.880770e+01
