# 
# Output from RAtom program.
# 
# Total radial electron density.
# The first column contains radius $r$ in bohr units.
# The second column holds $\rho(r)$.
# The third column holds $\tilde{\rho}(r) = \rho(r) / (\pi * r * r)$
# 
# Use this file with gnuplot to create the plot.
# 
# R     Rho     RhoTilde
#
0.000000e+00 0.000000e+00 7.102429e+03
7.324219e-04 4.636008e-02 6.877201e+03
1.464844e-03 1.795606e-01 6.659147e+03
2.197266e-03 3.912034e-01 6.448038e+03
2.929688e-03 6.734285e-01 6.243657e+03
3.662109e-03 1.018886e+00 6.045789e+03
4.394531e-03 1.420708e+00 5.854231e+03
5.126953e-03 1.872485e+00 5.668782e+03
5.859375e-03 2.368239e+00 5.489250e+03
6.591797e-03 2.902400e+00 5.315447e+03
7.324219e-03 3.469788e+00 5.147193e+03
8.056641e-03 4.065584e+00 4.984311e+03
8.789062e-03 4.685318e+00 4.826631e+03
9.521484e-03 5.324844e+00 4.673989e+03
1.025391e-02 5.980323e+00 4.526225e+03
1.098633e-02 6.648208e+00 4.383183e+03
1.171875e-02 7.325225e+00 4.244715e+03
1.245117e-02 8.008356e+00 4.110674e+03
1.318359e-02 8.694829e+00 3.980921e+03
1.391602e-02 9.382097e+00 3.855318e+03
1.464844e-02 1.006783e+01 3.733735e+03
1.538086e-02 1.074990e+01 3.616043e+03
1.611328e-02 1.142638e+01 3.502117e+03
1.684570e-02 1.209549e+01 3.391840e+03
1.757812e-02 1.275565e+01 3.285094e+03
1.831055e-02 1.340543e+01 3.181767e+03
1.904297e-02 1.404354e+01 3.081750e+03
1.977539e-02 1.466882e+01 2.984937e+03
2.050781e-02 1.528026e+01 2.891228e+03
2.124023e-02 1.587696e+01 2.800522e+03
2.197266e-02 1.645813e+01 2.712724e+03
2.270508e-02 1.702309e+01 2.627741e+03
2.343750e-02 1.757126e+01 2.545484e+03
2.416992e-02 1.810213e+01 2.465866e+03
2.490234e-02 1.861532e+01 2.388802e+03
2.563477e-02 1.911048e+01 2.314211e+03
2.636719e-02 1.958736e+01 2.242015e+03
2.709961e-02 2.004578e+01 2.172136e+03
2.783203e-02 2.048561e+01 2.104501e+03
2.856445e-02 2.090678e+01 2.039038e+03
2.929688e-02 2.130928e+01 1.975679e+03
3.002930e-02 2.169315e+01 1.914355e+03
3.076172e-02 2.205848e+01 1.855002e+03
3.149414e-02 2.240537e+01 1.797557e+03
3.222656e-02 2.273400e+01 1.741959e+03
3.295898e-02 2.304456e+01 1.688149e+03
3.369141e-02 2.333727e+01 1.636070e+03
3.442383e-02 2.361240e+01 1.585667e+03
3.515625e-02 2.387023e+01 1.536886e+03
3.588867e-02 2.411105e+01 1.489675e+03
3.662109e-02 2.433520e+01 1.443984e+03
3.698730e-02 2.444113e+01 1.421694e+03
3.735352e-02 2.454302e+01 1.399765e+03
3.771973e-02 2.464092e+01 1.378193e+03
3.808594e-02 2.473487e+01 1.356970e+03
3.845215e-02 2.482492e+01 1.336093e+03
3.881836e-02 2.491111e+01 1.315555e+03
3.918457e-02 2.499351e+01 1.295350e+03
3.955078e-02 2.507215e+01 1.275474e+03
3.991699e-02 2.514709e+01 1.255921e+03
4.028320e-02 2.521837e+01 1.236685e+03
4.064941e-02 2.528606e+01 1.217763e+03
4.101562e-02 2.535019e+01 1.199148e+03
4.138184e-02 2.541083e+01 1.180836e+03
4.174805e-02 2.546801e+01 1.162821e+03
4.211426e-02 2.552181e+01 1.145100e+03
4.248047e-02 2.557226e+01 1.127667e+03
4.284668e-02 2.561943e+01 1.110517e+03
4.321289e-02 2.566336e+01 1.093647e+03
4.357910e-02 2.570411e+01 1.077051e+03
4.394531e-02 2.574173e+01 1.060725e+03
4.541016e-02 2.586203e+01 9.980372e+02
4.687500e-02 2.593660e+01 9.393352e+02
4.833984e-02 2.596888e+01 8.843675e+02
4.980469e-02 2.596226e+01 8.328988e+02
5.126953e-02 2.592011e+01 7.847082e+02
5.273438e-02 2.584567e+01 7.395887e+02
5.419922e-02 2.574213e+01 6.973463e+02
5.566406e-02 2.561256e+01 6.577991e+02
5.712891e-02 2.545991e+01 6.207764e+02
5.859375e-02 2.528703e+01 5.861185e+02
6.005859e-02 2.509663e+01 5.536755e+02
6.152344e-02 2.489129e+01 5.233068e+02
6.298828e-02 2.467346e+01 4.948808e+02
6.445312e-02 2.444544e+01 4.682740e+02
6.591797e-02 2.420942e+01 4.433707e+02
6.738281e-02 2.396745e+01 4.200623e+02
6.884766e-02 2.372143e+01 3.982472e+02
7.031250e-02 2.347315e+01 3.778300e+02
7.177734e-02 2.322426e+01 3.587213e+02
7.324219e-02 2.297628e+01 3.408374e+02
7.360840e-02 2.291460e+01 3.365485e+02
7.397461e-02 2.285309e+01 3.323301e+02
7.434082e-02 2.279176e+01 3.281809e+02
7.470703e-02 2.273064e+01 3.240998e+02
7.507324e-02 2.266974e+01 3.200858e+02
7.543945e-02 2.260909e+01 3.161377e+02
7.580566e-02 2.254871e+01 3.122544e+02
7.617188e-02 2.248861e+01 3.084348e+02
7.653809e-02 2.242881e+01 3.046780e+02
7.690430e-02 2.236932e+01 3.009829e+02
7.727051e-02 2.231017e+01 2.973484e+02
7.763672e-02 2.225137e+01 2.937735e+02
7.800293e-02 2.219294e+01 2.902573e+02
7.836914e-02 2.213489e+01 2.867988e+02
7.873535e-02 2.207724e+01 2.833971e+02
7.910156e-02 2.202000e+01 2.800512e+02
7.946777e-02 2.196319e+01 2.767601e+02
7.983398e-02 2.190682e+01 2.735230e+02
8.020020e-02 2.185091e+01 2.703390e+02
8.056641e-02 2.179546e+01 2.672072e+02
8.129883e-02 2.168603e+01 2.610968e+02
8.203125e-02 2.157861e+01 2.551849e+02
8.276367e-02 2.147332e+01 2.494651e+02
8.349609e-02 2.137023e+01 2.439310e+02
8.422852e-02 2.126943e+01 2.385765e+02
8.496094e-02 2.117099e+01 2.333956e+02
8.569336e-02 2.107498e+01 2.283826e+02
8.642578e-02 2.098148e+01 2.235320e+02
8.715820e-02 2.089055e+01 2.188383e+02
8.789062e-02 2.080223e+01 2.142964e+02
8.935547e-02 2.063366e+01 2.056479e+02
9.082031e-02 2.047615e+01 1.975479e+02
9.228516e-02 2.032998e+01 1.899605e+02
9.375000e-02 2.019538e+01 1.828520e+02
9.521484e-02 2.007254e+01 1.761908e+02
9.667969e-02 1.996156e+01 1.699473e+02
9.814453e-02 1.986252e+01 1.640938e+02
9.960938e-02 1.977542e+01 1.586044e+02
1.010742e-01 1.970023e+01 1.534549e+02
1.025391e-01 1.963690e+01 1.486224e+02
1.040039e-01 1.958531e+01 1.440858e+02
1.054688e-01 1.954532e+01 1.398251e+02
1.069336e-01 1.951675e+01 1.358218e+02
1.083984e-01 1.949941e+01 1.320583e+02
1.098633e-01 1.949306e+01 1.285183e+02
1.113281e-01 1.949746e+01 1.251868e+02
1.127930e-01 1.951233e+01 1.220493e+02
1.142578e-01 1.953738e+01 1.190926e+02
1.157227e-01 1.957230e+01 1.163041e+02
1.171875e-01 1.961676e+01 1.136724e+02
1.186523e-01 1.967044e+01 1.111864e+02
1.201172e-01 1.973298e+01 1.088360e+02
1.215820e-01 1.980404e+01 1.066118e+02
1.230469e-01 1.988324e+01 1.045048e+02
1.245117e-01 1.997022e+01 1.025068e+02
1.259766e-01 2.006461e+01 1.006100e+02
1.274414e-01 2.016603e+01 9.880738e+01
1.289062e-01 2.027410e+01 9.709205e+01
1.303711e-01 2.038844e+01 9.545781e+01
1.318359e-01 2.050867e+01 9.389881e+01
1.333008e-01 2.063442e+01 9.240960e+01
1.347656e-01 2.076531e+01 9.098512e+01
1.362305e-01 2.090097e+01 8.962064e+01
1.376953e-01 2.104102e+01 8.831178e+01
1.391602e-01 2.118510e+01 8.705444e+01
1.406250e-01 2.133286e+01 8.584482e+01
1.420898e-01 2.148393e+01 8.467939e+01
1.435547e-01 2.163796e+01 8.355487e+01
1.450195e-01 2.179462e+01 8.246820e+01
1.464844e-01 2.195357e+01 8.141656e+01
1.472168e-01 2.203381e+01 8.090305e+01
1.479492e-01 2.211449e+01 8.039733e+01
1.486816e-01 2.219558e+01 7.989909e+01
1.494141e-01 2.227704e+01 7.940806e+01
1.501465e-01 2.235883e+01 7.892396e+01
1.508789e-01 2.244091e+01 7.844651e+01
1.516113e-01 2.252326e+01 7.797547e+01
1.523438e-01 2.260582e+01 7.751059e+01
1.530762e-01 2.268856e+01 7.705163e+01
1.538086e-01 2.277145e+01 7.659837e+01
1.541748e-01 2.281293e+01 7.637381e+01
1.545410e-01 2.285444e+01 7.615058e+01
1.549072e-01 2.289597e+01 7.592868e+01
1.552734e-01 2.293751e+01 7.570806e+01
1.556396e-01 2.297907e+01 7.548872e+01
1.560059e-01 2.302063e+01 7.527061e+01
1.563721e-01 2.306219e+01 7.505372e+01
1.567383e-01 2.310374e+01 7.483802e+01
1.571045e-01 2.314529e+01 7.462349e+01
1.574707e-01 2.318683e+01 7.441011e+01
1.578369e-01 2.322835e+01 7.419786e+01
1.582031e-01 2.326985e+01 7.398670e+01
1.585693e-01 2.331133e+01 7.377664e+01
1.589355e-01 2.335279e+01 7.356763e+01
1.593018e-01 2.339421e+01 7.335966e+01
1.596680e-01 2.343559e+01 7.315272e+01
1.600342e-01 2.347694e+01 7.294678e+01
1.604004e-01 2.351824e+01 7.274182e+01
1.607666e-01 2.355950e+01 7.253782e+01
1.611328e-01 2.360070e+01 7.233477e+01
1.625977e-01 2.376494e+01 7.153167e+01
1.640625e-01 2.392807e+01 7.074231e+01
1.655273e-01 2.408987e+01 6.996569e+01
1.669922e-01 2.425012e+01 6.920089e+01
1.684570e-01 2.440860e+01 6.844705e+01
1.699219e-01 2.456513e+01 6.770342e+01
1.713867e-01 2.471950e+01 6.696926e+01
1.728516e-01 2.487154e+01 6.624395e+01
1.743164e-01 2.502108e+01 6.552689e+01
1.757812e-01 2.516794e+01 6.481755e+01
1.787109e-01 2.545301e+01 6.342012e+01
1.816406e-01 2.572562e+01 6.204831e+01
1.845703e-01 2.598472e+01 6.069940e+01
1.875000e-01 2.622940e+01 5.937121e+01
1.904297e-01 2.645887e+01 5.806201e+01
1.933594e-01 2.667244e+01 5.677047e+01
1.962891e-01 2.686956e+01 5.549559e+01
1.992188e-01 2.704973e+01 5.423663e+01
2.021484e-01 2.721259e+01 5.299309e+01
2.050781e-01 2.735784e+01 5.176466e+01
2.080078e-01 2.748529e+01 5.055117e+01
2.109375e-01 2.759481e+01 4.935259e+01
2.138672e-01 2.768634e+01 4.816898e+01
2.167969e-01 2.775991e+01 4.700047e+01
2.197266e-01 2.781560e+01 4.584727e+01
2.226562e-01 2.785355e+01 4.470961e+01
2.255859e-01 2.787394e+01 4.358775e+01
2.285156e-01 2.787703e+01 4.248198e+01
2.314453e-01 2.786309e+01 4.139260e+01
2.343750e-01 2.783247e+01 4.031989e+01
2.358398e-01 2.781101e+01 3.978987e+01
2.373047e-01 2.778552e+01 3.926413e+01
2.387695e-01 2.775604e+01 3.874270e+01
2.402344e-01 2.772263e+01 3.822560e+01
2.416992e-01 2.768535e+01 3.771287e+01
2.431641e-01 2.764424e+01 3.720455e+01
2.446289e-01 2.759937e+01 3.670065e+01
2.460938e-01 2.755079e+01 3.620121e+01
2.475586e-01 2.749857e+01 3.570625e+01
2.490234e-01 2.744276e+01 3.521580e+01
2.504883e-01 2.738344e+01 3.472988e+01
2.519531e-01 2.732065e+01 3.424850e+01
2.534180e-01 2.725446e+01 3.377170e+01
2.548828e-01 2.718495e+01 3.329949e+01
2.563477e-01 2.711217e+01 3.283188e+01
2.578125e-01 2.703619e+01 3.236889e+01
2.592773e-01 2.695709e+01 3.191052e+01
2.607422e-01 2.687491e+01 3.145680e+01
2.622070e-01 2.678975e+01 3.100774e+01
2.636719e-01 2.670165e+01 3.056333e+01
2.666016e-01 2.651696e+01 2.968851e+01
2.695312e-01 2.632138e+01 2.883239e+01
2.724609e-01 2.611548e+01 2.799495e+01
2.753906e-01 2.589982e+01 2.717619e+01
2.783203e-01 2.567494e+01 2.637605e+01
2.812500e-01 2.544140e+01 2.559447e+01
2.841797e-01 2.519976e+01 2.483136e+01
2.871094e-01 2.495055e+01 2.408660e+01
2.900391e-01 2.469431e+01 2.336006e+01
2.929688e-01 2.443157e+01 2.265161e+01
2.944336e-01 2.429793e+01 2.230410e+01
2.958984e-01 2.416287e+01 2.196106e+01
2.973633e-01 2.402643e+01 2.162244e+01
2.988281e-01 2.388870e+01 2.128824e+01
3.002930e-01 2.374973e+01 2.095841e+01
3.017578e-01 2.360958e+01 2.063295e+01
3.032227e-01 2.346831e+01 2.031181e+01
3.046875e-01 2.332599e+01 1.999498e+01
3.061523e-01 2.318267e+01 1.968242e+01
3.076172e-01 2.303842e+01 1.937411e+01
3.083496e-01 2.296596e+01 1.922153e+01
3.090820e-01 2.289329e+01 1.907001e+01
3.098145e-01 2.282042e+01 1.891953e+01
3.105469e-01 2.274734e+01 1.877010e+01
3.112793e-01 2.267408e+01 1.862170e+01
3.120117e-01 2.260063e+01 1.847434e+01
3.127441e-01 2.252701e+01 1.832801e+01
3.134766e-01 2.245321e+01 1.818270e+01
3.142090e-01 2.237926e+01 1.803842e+01
3.149414e-01 2.230514e+01 1.789516e+01
3.156738e-01 2.223088e+01 1.775291e+01
3.164062e-01 2.215648e+01 1.761168e+01
3.171387e-01 2.208194e+01 1.747145e+01
3.178711e-01 2.200727e+01 1.733222e+01
3.186035e-01 2.193248e+01 1.719399e+01
3.193359e-01 2.185757e+01 1.705675e+01
3.200684e-01 2.178255e+01 1.692051e+01
3.208008e-01 2.170743e+01 1.678525e+01
3.215332e-01 2.163221e+01 1.665097e+01
3.222656e-01 2.155690e+01 1.651766e+01
3.251953e-01 2.125489e+01 1.599413e+01
3.281250e-01 2.095193e+01 1.548587e+01
3.310547e-01 2.064839e+01 1.499260e+01
3.339844e-01 2.034465e+01 1.451403e+01
3.369141e-01 2.004104e+01 1.404987e+01
3.398438e-01 1.973792e+01 1.359982e+01
3.427734e-01 1.943561e+01 1.316358e+01
3.457031e-01 1.913441e+01 1.274086e+01
3.486328e-01 1.883463e+01 1.233135e+01
3.515625e-01 1.853654e+01 1.193476e+01
3.544922e-01 1.824043e+01 1.155079e+01
3.574219e-01 1.794654e+01 1.117914e+01
3.603516e-01 1.765512e+01 1.081952e+01
3.632812e-01 1.736640e+01 1.047162e+01
3.662109e-01 1.708060e+01 1.013516e+01
3.691406e-01 1.679793e+01 9.809847e+00
3.720703e-01 1.651858e+01 9.495392e+00
3.750000e-01 1.624274e+01 9.191510e+00
3.779297e-01 1.597057e+01 8.897921e+00
3.808594e-01 1.570224e+01 8.614347e+00
3.837891e-01 1.543789e+01 8.340514e+00
3.867188e-01 1.517766e+01 8.076152e+00
3.896484e-01 1.492168e+01 7.820995e+00
3.925781e-01 1.467007e+01 7.574781e+00
3.955078e-01 1.442293e+01 7.337253e+00
3.984375e-01 1.418036e+01 7.108157e+00
4.013672e-01 1.394245e+01 6.887245e+00
4.042969e-01 1.370928e+01 6.674274e+00
4.072266e-01 1.348092e+01 6.469004e+00
4.101562e-01 1.325743e+01 6.271201e+00
4.130859e-01 1.303886e+01 6.080635e+00
4.160156e-01 1.282527e+01 5.897083e+00
4.189453e-01 1.261668e+01 5.720323e+00
4.218750e-01 1.241313e+01 5.550141e+00
4.248047e-01 1.221465e+01 5.386327e+00
4.277344e-01 1.202126e+01 5.228675e+00
4.306641e-01 1.183295e+01 5.076986e+00
4.335938e-01 1.164975e+01 4.931063e+00
4.365234e-01 1.147164e+01 4.790716e+00
4.394531e-01 1.129862e+01 4.655759e+00
4.423828e-01 1.113068e+01 4.526009e+00
4.453125e-01 1.096781e+01 4.401292e+00
4.482422e-01 1.080997e+01 4.281434e+00
4.511719e-01 1.065715e+01 4.166267e+00
4.541016e-01 1.050931e+01 4.055630e+00
4.570312e-01 1.036642e+01 3.949363e+00
4.599609e-01 1.022843e+01 3.847312e+00
4.628906e-01 1.009532e+01 3.749327e+00
4.658203e-01 9.967017e+00 3.655262e+00
4.687500e-01 9.843489e+00 3.564976e+00
4.746094e-01 9.610530e+00 3.395196e+00
4.804688e-01 9.395982e+00 3.238934e+00
4.863281e-01 9.199353e+00 3.095199e+00
4.921875e-01 9.020111e+00 2.963063e+00
4.980469e-01 8.857697e+00 2.841650e+00
5.039062e-01 8.711530e+00 2.730141e+00
5.097656e-01 8.581004e+00 2.627769e+00
5.156250e-01 8.465500e+00 2.533815e+00
5.214844e-01 8.364389e+00 2.447607e+00
5.273438e-01 8.277030e+00 2.368520e+00
5.332031e-01 8.202778e+00 2.295968e+00
5.390625e-01 8.140989e+00 2.229406e+00
5.449219e-01 8.091016e+00 2.168327e+00
5.507812e-01 8.052218e+00 2.112260e+00
5.566406e-01 8.023956e+00 2.060767e+00
5.625000e-01 8.005601e+00 2.013442e+00
5.683594e-01 7.996535e+00 1.969908e+00
5.742188e-01 7.996146e+00 1.929817e+00
5.800781e-01 8.003837e+00 1.892847e+00
5.859375e-01 8.019026e+00 1.858699e+00
5.888672e-01 8.029253e+00 1.842598e+00
5.917969e-01 8.041142e+00 1.827101e+00
5.947266e-01 8.054624e+00 1.812178e+00
5.976562e-01 8.069631e+00 1.797798e+00
6.005859e-01 8.086098e+00 1.783934e+00
6.035156e-01 8.103956e+00 1.770558e+00
6.064453e-01 8.123144e+00 1.757644e+00
6.093750e-01 8.143596e+00 1.745167e+00
6.123047e-01 8.165250e+00 1.733103e+00
6.152344e-01 8.188045e+00 1.721429e+00
6.166992e-01 8.199852e+00 1.715732e+00
6.181641e-01 8.211921e+00 1.710123e+00
6.196289e-01 8.224246e+00 1.704602e+00
6.210938e-01 8.236818e+00 1.699164e+00
6.225586e-01 8.249632e+00 1.693808e+00
6.240234e-01 8.262679e+00 1.688532e+00
6.254883e-01 8.275953e+00 1.683332e+00
6.269531e-01 8.289447e+00 1.678207e+00
6.284180e-01 8.303153e+00 1.673154e+00
6.298828e-01 8.317066e+00 1.668172e+00
6.313477e-01 8.331177e+00 1.663257e+00
6.328125e-01 8.345481e+00 1.658408e+00
6.342773e-01 8.359971e+00 1.653623e+00
6.357422e-01 8.374640e+00 1.648900e+00
6.372070e-01 8.389482e+00 1.644236e+00
6.386719e-01 8.404490e+00 1.639630e+00
6.401367e-01 8.419658e+00 1.635080e+00
6.416016e-01 8.434979e+00 1.630585e+00
6.430664e-01 8.450448e+00 1.626141e+00
6.445312e-01 8.466058e+00 1.621748e+00
6.503906e-01 8.529792e+00 1.604649e+00
6.562500e-01 8.595313e+00 1.588229e+00
6.621094e-01 8.662262e+00 1.572396e+00
6.679688e-01 8.730297e+00 1.557066e+00
6.738281e-01 8.799096e+00 1.542162e+00
6.796875e-01 8.868352e+00 1.527617e+00
6.855469e-01 8.937775e+00 1.513370e+00
6.914062e-01 9.007092e+00 1.499368e+00
6.972656e-01 9.076047e+00 1.485561e+00
7.031250e-01 9.144400e+00 1.471907e+00
7.148438e-01 9.278410e+00 1.444912e+00
7.265625e-01 9.407499e+00 1.418138e+00
7.382812e-01 9.530266e+00 1.391398e+00
7.500000e-01 9.645523e+00 1.364562e+00
7.617188e-01 9.752276e+00 1.337540e+00
7.734375e-01 9.849711e+00 1.310277e+00
7.851562e-01 9.937181e+00 1.282747e+00
7.968750e-01 1.001419e+01 1.254947e+00
8.085938e-01 1.008038e+01 1.226891e+00
8.203125e-01 1.013551e+01 1.198607e+00
8.320312e-01 1.017945e+01 1.170133e+00
8.437500e-01 1.021218e+01 1.141513e+00
8.554688e-01 1.023375e+01 1.112799e+00
8.671875e-01 1.024431e+01 1.084044e+00
8.789062e-01 1.024404e+01 1.055301e+00
8.906250e-01 1.023321e+01 1.026626e+00
9.023438e-01 1.021213e+01 9.980729e-01
9.140625e-01 1.018113e+01 9.696931e-01
9.257812e-01 1.014060e+01 9.415365e-01
9.375000e-01 1.009096e+01 9.136502e-01
9.492188e-01 1.003262e+01 8.860777e-01
9.609375e-01 9.966028e+00 8.588592e-01
9.726562e-01 9.891645e+00 8.320317e-01
9.843750e-01 9.809931e+00 8.056287e-01
9.960938e-01 9.721353e+00 7.796801e-01
1.007812e+00 9.626377e+00 7.542122e-01
1.019531e+00 9.525466e+00 7.292480e-01
1.031250e+00 9.419076e+00 7.048075e-01
1.042969e+00 9.307659e+00 6.809073e-01
1.054688e+00 9.191654e+00 6.575613e-01
1.066406e+00 9.071492e+00 6.347804e-01
1.078125e+00 8.947589e+00 6.125731e-01
1.089844e+00 8.820351e+00 5.909456e-01
1.101562e+00 8.690165e+00 5.699016e-01
1.113281e+00 8.557408e+00 5.494430e-01
1.125000e+00 8.422440e+00 5.295695e-01
1.136719e+00 8.285603e+00 5.102796e-01
1.148438e+00 8.147226e+00 4.915698e-01
1.160156e+00 8.007620e+00 4.734353e-01
1.171875e+00 7.867081e+00 4.558702e-01
1.177734e+00 7.796550e+00 4.472990e-01
1.183594e+00 7.725889e+00 4.388674e-01
1.189453e+00 7.655131e+00 4.305743e-01
1.195312e+00 7.584308e+00 4.224187e-01
1.201172e+00 7.513449e+00 4.143995e-01
1.207031e+00 7.442585e+00 4.065153e-01
1.212891e+00 7.371745e+00 3.987651e-01
1.218750e+00 7.300955e+00 3.911475e-01
1.224609e+00 7.230244e+00 3.836612e-01
1.230469e+00 7.159636e+00 3.763049e-01
1.231934e+00 7.142004e+00 3.744860e-01
1.233398e+00 7.124379e+00 3.726751e-01
1.234863e+00 7.106764e+00 3.708722e-01
1.236328e+00 7.089158e+00 3.690773e-01
1.237793e+00 7.071561e+00 3.672903e-01
1.239258e+00 7.053975e+00 3.655112e-01
1.240723e+00 7.036398e+00 3.637400e-01
1.242188e+00 7.018833e+00 3.619768e-01
1.243652e+00 7.001278e+00 3.602214e-01
1.245117e+00 6.983735e+00 3.584738e-01
1.246582e+00 6.966203e+00 3.567340e-01
1.248047e+00 6.948684e+00 3.550021e-01
1.249512e+00 6.931177e+00 3.532779e-01
1.250977e+00 6.913683e+00 3.515614e-01
1.252441e+00 6.896201e+00 3.498527e-01
1.253906e+00 6.878733e+00 3.481517e-01
1.255371e+00 6.861279e+00 3.464583e-01
1.256836e+00 6.843839e+00 3.447726e-01
1.258301e+00 6.826414e+00 3.430945e-01
1.259766e+00 6.809003e+00 3.414241e-01
1.262695e+00 6.774227e+00 3.381059e-01
1.265625e+00 6.739514e+00 3.348179e-01
1.268555e+00 6.704867e+00 3.315598e-01
1.271484e+00 6.670288e+00 3.283316e-01
1.274414e+00 6.635778e+00 3.251329e-01
1.277344e+00 6.601342e+00 3.219636e-01
1.280273e+00 6.566980e+00 3.188235e-01
1.283203e+00 6.532695e+00 3.157124e-01
1.286133e+00 6.498489e+00 3.126302e-01
1.289062e+00 6.464365e+00 3.095765e-01
1.300781e+00 6.328721e+00 2.976443e-01
1.312500e+00 6.194538e+00 2.861544e-01
1.324219e+00 6.061929e+00 2.750943e-01
1.335938e+00 5.931001e+00 2.644514e-01
1.347656e+00 5.801847e+00 2.542132e-01
1.359375e+00 5.674552e+00 2.443674e-01
1.371094e+00 5.549193e+00 2.349014e-01
1.382812e+00 5.425835e+00 2.258032e-01
1.394531e+00 5.304539e+00 2.170608e-01
1.406250e+00 5.185355e+00 2.086621e-01
1.417969e+00 5.068327e+00 2.005956e-01
1.429688e+00 4.953492e+00 1.928499e-01
1.441406e+00 4.840880e+00 1.854136e-01
1.453125e+00 4.730516e+00 1.782759e-01
1.464844e+00 4.622417e+00 1.714260e-01
1.476562e+00 4.516597e+00 1.648534e-01
1.488281e+00 4.413064e+00 1.585479e-01
1.500000e+00 4.311822e+00 1.524995e-01
1.511719e+00 4.212870e+00 1.466987e-01
1.523438e+00 4.116202e+00 1.411359e-01
1.535156e+00 4.021810e+00 1.358021e-01
1.546875e+00 3.929683e+00 1.306885e-01
1.558594e+00 3.839805e+00 1.257863e-01
1.570312e+00 3.752159e+00 1.210875e-01
1.582031e+00 3.666723e+00 1.165838e-01
1.593750e+00 3.583474e+00 1.122675e-01
1.605469e+00 3.502389e+00 1.081311e-01
1.617188e+00 3.423438e+00 1.041674e-01
1.628906e+00 3.346595e+00 1.003693e-01
1.640625e+00 3.271827e+00 9.673014e-02
1.664062e+00 3.128392e+00 8.990255e-02
1.687500e+00 2.992864e+00 8.363528e-02
1.710938e+00 2.864960e+00 7.788259e-02
