# 
# Output from RAtom program.
# 
# Total radial electron density.
# The first column contains radius $r$ in bohr units.
# The second column holds $\rho(r)$.
# The third column holds $\tilde{\rho}(r) = \rho(r) / (\pi * r * r)$
# 
# Use this file with gnuplot to create the plot.
# 
# R     Rho     RhoTilde
#
0.000000e+00 0.000000e+00 3.811963e+05
8.392334e-05 3.328278e-02 3.760488e+05
1.678467e-04 1.313334e-01 3.709709e+05
2.517700e-04 2.915101e-01 3.659617e+05
3.356934e-04 5.112425e-01 3.610203e+05
4.196167e-04 7.880306e-01 3.561457e+05
5.035400e-04 1.119443e+00 3.513371e+05
5.874634e-04 1.503114e+00 3.465935e+05
6.713867e-04 1.936745e+00 3.419142e+05
7.553101e-04 2.418102e+00 3.372983e+05
8.392334e-04 2.945010e+00 3.327449e+05
9.231567e-04 3.515359e+00 3.282531e+05
1.007080e-03 4.127096e+00 3.238223e+05
1.091003e-03 4.778229e+00 3.194515e+05
1.174927e-03 5.466821e+00 3.151399e+05
1.258850e-03 6.190992e+00 3.108868e+05
1.342773e-03 6.948914e+00 3.066914e+05
1.426697e-03 7.738817e+00 3.025529e+05
1.510620e-03 8.558978e+00 2.984706e+05
1.594543e-03 9.407728e+00 2.944436e+05
1.678467e-03 1.028345e+01 2.904714e+05
1.846313e-03 1.210955e+01 2.826879e+05
2.014160e-03 1.402527e+01 2.751145e+05
2.182007e-03 1.601933e+01 2.677455e+05
2.349854e-03 1.808111e+01 2.605756e+05
2.517700e-03 2.020068e+01 2.535994e+05
2.685547e-03 2.236872e+01 2.468117e+05
2.853394e-03 2.457651e+01 2.402077e+05
3.021240e-03 2.681588e+01 2.337823e+05
3.189087e-03 2.907924e+01 2.275309e+05
3.356934e-03 3.135947e+01 2.214488e+05
3.524780e-03 3.364997e+01 2.155315e+05
3.692627e-03 3.594460e+01 2.097746e+05
3.860474e-03 3.823765e+01 2.041738e+05
4.028320e-03 4.052383e+01 1.987251e+05
4.196167e-03 4.279827e+01 1.934242e+05
4.364014e-03 4.505646e+01 1.882673e+05
4.531860e-03 4.729425e+01 1.832506e+05
4.699707e-03 4.950783e+01 1.783703e+05
4.867554e-03 5.169373e+01 1.736227e+05
5.035400e-03 5.384876e+01 1.690043e+05
5.203247e-03 5.597004e+01 1.645117e+05
5.371094e-03 5.805496e+01 1.601415e+05
5.538940e-03 6.010115e+01 1.558904e+05
5.706787e-03 6.210650e+01 1.517553e+05
5.874634e-03 6.406915e+01 1.477330e+05
6.042480e-03 6.598742e+01 1.438205e+05
6.210327e-03 6.785987e+01 1.400149e+05
6.378174e-03 6.968522e+01 1.363133e+05
6.546021e-03 7.146241e+01 1.327129e+05
6.713867e-03 7.319052e+01 1.292110e+05
7.049561e-03 7.649668e+01 1.224923e+05
7.385254e-03 7.959949e+01 1.161367e+05
7.720947e-03 8.249689e+01 1.101252e+05
8.056641e-03 8.518866e+01 1.044393e+05
8.392334e-03 8.767621e+01 9.906184e+04
8.728027e-03 8.996237e+01 9.397640e+04
9.063721e-03 9.205114e+01 8.916744e+04
9.399414e-03 9.394757e+01 8.462022e+04
9.735107e-03 9.565756e+01 8.032079e+04
1.007080e-02 9.718772e+01 7.625591e+04
1.023865e-02 9.788760e+01 7.430750e+04
1.040649e-02 9.854525e+01 7.241307e+04
1.057434e-02 9.916166e+01 7.057117e+04
1.074219e-02 9.973781e+01 6.878037e+04
1.091003e-02 1.002747e+02 6.703928e+04
1.107788e-02 1.007734e+02 6.534656e+04
1.124573e-02 1.012349e+02 6.370088e+04
1.141357e-02 1.016603e+02 6.210097e+04
1.158142e-02 1.020507e+02 6.054557e+04
1.174927e-02 1.024071e+02 5.903349e+04
1.191711e-02 1.027305e+02 5.756353e+04
1.208496e-02 1.030221e+02 5.613454e+04
1.225281e-02 1.032830e+02 5.474542e+04
1.242065e-02 1.035142e+02 5.339506e+04
1.258850e-02 1.037168e+02 5.208241e+04
1.275635e-02 1.038918e+02 5.080643e+04
1.292419e-02 1.040403e+02 4.956612e+04
1.309204e-02 1.041635e+02 4.836051e+04
1.325989e-02 1.042622e+02 4.718864e+04
1.342773e-02 1.043377e+02 4.604959e+04
1.376343e-02 1.044226e+02 4.386635e+04
1.409912e-02 1.044264e+02 4.180385e+04
1.443481e-02 1.043569e+02 3.985555e+04
1.477051e-02 1.042217e+02 3.801522e+04
1.510620e-02 1.040283e+02 3.627698e+04
1.544189e-02 1.037837e+02 3.463523e+04
1.577759e-02 1.034948e+02 3.308472e+04
1.611328e-02 1.031681e+02 3.162042e+04
1.644897e-02 1.028099e+02 3.023760e+04
1.678467e-02 1.024261e+02 2.893178e+04
1.712036e-02 1.020223e+02 2.769870e+04
1.745605e-02 1.016039e+02 2.653435e+04
1.779175e-02 1.011759e+02 2.543491e+04
1.812744e-02 1.007431e+02 2.439677e+04
1.846313e-02 1.003098e+02 2.341653e+04
1.879883e-02 9.988017e+01 2.249095e+04
1.913452e-02 9.945807e+01 2.161698e+04
1.947021e-02 9.904705e+01 2.079171e+04
1.980591e-02 9.865039e+01 2.001241e+04
2.014160e-02 9.827110e+01 1.927649e+04
2.047729e-02 9.791193e+01 1.858149e+04
2.081299e-02 9.757538e+01 1.792510e+04
2.114868e-02 9.726370e+01 1.730511e+04
2.148438e-02 9.697893e+01 1.671945e+04
2.182007e-02 9.672284e+01 1.616616e+04
2.215576e-02 9.649704e+01 1.564339e+04
2.249146e-02 9.630288e+01 1.514936e+04
2.282715e-02 9.614154e+01 1.468243e+04
2.316284e-02 9.601402e+01 1.424102e+04
2.349854e-02 9.592112e+01 1.382365e+04
2.383423e-02 9.586348e+01 1.342892e+04
2.416992e-02 9.584159e+01 1.305550e+04
2.450562e-02 9.585576e+01 1.270215e+04
2.484131e-02 9.590619e+01 1.236767e+04
2.517700e-02 9.599293e+01 1.205095e+04
2.551270e-02 9.611590e+01 1.175094e+04
2.584839e-02 9.627490e+01 1.146664e+04
2.618408e-02 9.646963e+01 1.119711e+04
2.651978e-02 9.669969e+01 1.094147e+04
2.685547e-02 9.696457e+01 1.069887e+04
2.719116e-02 9.726368e+01 1.046852e+04
2.752686e-02 9.759636e+01 1.024969e+04
2.786255e-02 9.796186e+01 1.004166e+04
2.819824e-02 9.835936e+01 9.843777e+03
2.853394e-02 9.878800e+01 9.655416e+03
2.886963e-02 9.924683e+01 9.475986e+03
2.920532e-02 9.973489e+01 9.304933e+03
2.954102e-02 1.002511e+02 9.141734e+03
2.987671e-02 1.007945e+02 8.985899e+03
3.021240e-02 1.013639e+02 8.836963e+03
3.054810e-02 1.019582e+02 8.694491e+03
3.088379e-02 1.025763e+02 8.558072e+03
3.121948e-02 1.032169e+02 8.427321e+03
3.155518e-02 1.038789e+02 8.301876e+03
3.189087e-02 1.045611e+02 8.181396e+03
3.222656e-02 1.052622e+02 8.065559e+03
3.256226e-02 1.059810e+02 7.954066e+03
3.289795e-02 1.067163e+02 7.846635e+03
3.323364e-02 1.074670e+02 7.742999e+03
3.356934e-02 1.082316e+02 7.642911e+03
3.390503e-02 1.090091e+02 7.546137e+03
3.424072e-02 1.097982e+02 7.452459e+03
3.457642e-02 1.105977e+02 7.361672e+03
3.491211e-02 1.114065e+02 7.273585e+03
3.524780e-02 1.122233e+02 7.188017e+03
3.558350e-02 1.130470e+02 7.104802e+03
3.591919e-02 1.138765e+02 7.023783e+03
3.625488e-02 1.147106e+02 6.944812e+03
3.659058e-02 1.155482e+02 6.867754e+03
3.692627e-02 1.163882e+02 6.792480e+03
3.726196e-02 1.172297e+02 6.718872e+03
3.759766e-02 1.180715e+02 6.646818e+03
3.793335e-02 1.189127e+02 6.576216e+03
3.826904e-02 1.197523e+02 6.506969e+03
3.860474e-02 1.205893e+02 6.438989e+03
3.894043e-02 1.214228e+02 6.372191e+03
3.927612e-02 1.222519e+02 6.306499e+03
3.961182e-02 1.230757e+02 6.241843e+03
3.994751e-02 1.238934e+02 6.178155e+03
4.028320e-02 1.247042e+02 6.115375e+03
4.061890e-02 1.255072e+02 6.053446e+03
4.095459e-02 1.263019e+02 5.992317e+03
4.129028e-02 1.270873e+02 5.931939e+03
4.162598e-02 1.278629e+02 5.872268e+03
4.196167e-02 1.286280e+02 5.813264e+03
4.229736e-02 1.293819e+02 5.754889e+03
4.263306e-02 1.301240e+02 5.697110e+03
4.296875e-02 1.308538e+02 5.639895e+03
4.330444e-02 1.315707e+02 5.583216e+03
4.364014e-02 1.322742e+02 5.527048e+03
4.397583e-02 1.329639e+02 5.471366e+03
4.431152e-02 1.336392e+02 5.416150e+03
4.464722e-02 1.342998e+02 5.361381e+03
4.498291e-02 1.349452e+02 5.307041e+03
4.531860e-02 1.355751e+02 5.253116e+03
4.565430e-02 1.361891e+02 5.199590e+03
4.598999e-02 1.367869e+02 5.146453e+03
4.632568e-02 1.373682e+02 5.093694e+03
4.666138e-02 1.379328e+02 5.041302e+03
4.699707e-02 1.384804e+02 4.989270e+03
4.733276e-02 1.390109e+02 4.937591e+03
4.766846e-02 1.395239e+02 4.886259e+03
4.800415e-02 1.400193e+02 4.835268e+03
4.833984e-02 1.404971e+02 4.784615e+03
4.867554e-02 1.409570e+02 4.734295e+03
4.901123e-02 1.413990e+02 4.684307e+03
4.934692e-02 1.418230e+02 4.634648e+03
4.968262e-02 1.422290e+02 4.585317e+03
5.001831e-02 1.426168e+02 4.536312e+03
5.035400e-02 1.429866e+02 4.487634e+03
5.068970e-02 1.433382e+02 4.439283e+03
5.102539e-02 1.436718e+02 4.391258e+03
5.136108e-02 1.439873e+02 4.343561e+03
5.169678e-02 1.442848e+02 4.296193e+03
5.203247e-02 1.445644e+02 4.249155e+03
5.236816e-02 1.448261e+02 4.202449e+03
5.270386e-02 1.450702e+02 4.156076e+03
5.303955e-02 1.452966e+02 4.110039e+03
5.337524e-02 1.455056e+02 4.064340e+03
5.371094e-02 1.456972e+02 4.018980e+03
5.438232e-02 1.460292e+02 3.929291e+03
5.505371e-02 1.462939e+02 3.840990e+03
5.572510e-02 1.464931e+02 3.754097e+03
5.639648e-02 1.466284e+02 3.668633e+03
5.706787e-02 1.467019e+02 3.584616e+03
5.773926e-02 1.467157e+02 3.502066e+03
5.841064e-02 1.466719e+02 3.420999e+03
5.908203e-02 1.465728e+02 3.341431e+03
5.975342e-02 1.464207e+02 3.263377e+03
6.042480e-02 1.462183e+02 3.186849e+03
6.109619e-02 1.459680e+02 3.111856e+03
6.176758e-02 1.456724e+02 3.038408e+03
6.243896e-02 1.453340e+02 2.966511e+03
6.311035e-02 1.449556e+02 2.896169e+03
6.378174e-02 1.445398e+02 2.827384e+03
6.445312e-02 1.440892e+02 2.760157e+03
6.512451e-02 1.436066e+02 2.694484e+03
6.579590e-02 1.430946e+02 2.630363e+03
6.646729e-02 1.425557e+02 2.567787e+03
6.713867e-02 1.419927e+02 2.506748e+03
6.747437e-02 1.417030e+02 2.476803e+03
6.781006e-02 1.414081e+02 2.447238e+03
6.814575e-02 1.411085e+02 2.418052e+03
6.848145e-02 1.408044e+02 2.389244e+03
6.881714e-02 1.404961e+02 2.360811e+03
6.915283e-02 1.401840e+02 2.332753e+03
6.948853e-02 1.398684e+02 2.305067e+03
6.982422e-02 1.395495e+02 2.277751e+03
7.015991e-02 1.392277e+02 2.250804e+03
7.049561e-02 1.389032e+02 2.224223e+03
7.057953e-02 1.388217e+02 2.217634e+03
7.066345e-02 1.387400e+02 2.211069e+03
7.074738e-02 1.386582e+02 2.204526e+03
7.083130e-02 1.385763e+02 2.198005e+03
7.091522e-02 1.384943e+02 2.191507e+03
7.099915e-02 1.384121e+02 2.185032e+03
7.108307e-02 1.383298e+02 2.178580e+03
7.116699e-02 1.382473e+02 2.172149e+03
7.125092e-02 1.381648e+02 2.165742e+03
7.133484e-02 1.380822e+02 2.159357e+03
7.137680e-02 1.380408e+02 2.156172e+03
7.141876e-02 1.379994e+02 2.152994e+03
7.146072e-02 1.379580e+02 2.149821e+03
7.150269e-02 1.379166e+02 2.146653e+03
7.154465e-02 1.378751e+02 2.143491e+03
7.158661e-02 1.378336e+02 2.140335e+03
7.162857e-02 1.377921e+02 2.137184e+03
7.167053e-02 1.377506e+02 2.134039e+03
7.171249e-02 1.377090e+02 2.130899e+03
7.175446e-02 1.376675e+02 2.127765e+03
7.179642e-02 1.376259e+02 2.124637e+03
7.183838e-02 1.375843e+02 2.121514e+03
7.188034e-02 1.375426e+02 2.118396e+03
7.192230e-02 1.375010e+02 2.115284e+03
7.196426e-02 1.374593e+02 2.112178e+03
7.200623e-02 1.374176e+02 2.109077e+03
7.204819e-02 1.373759e+02 2.105982e+03
7.209015e-02 1.373342e+02 2.102892e+03
7.213211e-02 1.372924e+02 2.099807e+03
7.217407e-02 1.372507e+02 2.096729e+03
7.234192e-02 1.370835e+02 2.084468e+03
7.250977e-02 1.369161e+02 2.072295e+03
7.267761e-02 1.367485e+02 2.060210e+03
7.284546e-02 1.365808e+02 2.048211e+03
7.301331e-02 1.364129e+02 2.036299e+03
7.318115e-02 1.362450e+02 2.024474e+03
7.334900e-02 1.360770e+02 2.012734e+03
7.351685e-02 1.359089e+02 2.001080e+03
7.368469e-02 1.357409e+02 1.989511e+03
7.385254e-02 1.355729e+02 1.978027e+03
7.452393e-02 1.349018e+02 1.932932e+03
7.519531e-02 1.342337e+02 1.889166e+03
7.586670e-02 1.335702e+02 1.846704e+03
7.653809e-02 1.329131e+02 1.805522e+03
7.720947e-02 1.322640e+02 1.765594e+03
7.788086e-02 1.316246e+02 1.726894e+03
7.855225e-02 1.309961e+02 1.689395e+03
7.922363e-02 1.303801e+02 1.653073e+03
7.989502e-02 1.297778e+02 1.617898e+03
8.056641e-02 1.291904e+02 1.583844e+03
8.123779e-02 1.286191e+02 1.550884e+03
8.190918e-02 1.280649e+02 1.518991e+03
8.258057e-02 1.275288e+02 1.488136e+03
8.325195e-02 1.270116e+02 1.458293e+03
8.392334e-02 1.265143e+02 1.429434e+03
8.459473e-02 1.260374e+02 1.401532e+03
8.526611e-02 1.255817e+02 1.374560e+03
8.593750e-02 1.251478e+02 1.348490e+03
8.660889e-02 1.247361e+02 1.323297e+03
8.728027e-02 1.243471e+02 1.298954e+03
8.795166e-02 1.239812e+02 1.275434e+03
8.862305e-02 1.236387e+02 1.252712e+03
8.929443e-02 1.233198e+02 1.230762e+03
8.996582e-02 1.230247e+02 1.209560e+03
9.063721e-02 1.227535e+02 1.189080e+03
9.130859e-02 1.225063e+02 1.169298e+03
9.197998e-02 1.222831e+02 1.150191e+03
9.265137e-02 1.220838e+02 1.131735e+03
9.332275e-02 1.219083e+02 1.113906e+03
9.399414e-02 1.217565e+02 1.096682e+03
9.466553e-02 1.216282e+02 1.080042e+03
9.533691e-02 1.215231e+02 1.063964e+03
9.600830e-02 1.214409e+02 1.048426e+03
9.667969e-02 1.213814e+02 1.033408e+03
9.735107e-02 1.213441e+02 1.018890e+03
9.802246e-02 1.213286e+02 1.004852e+03
9.869385e-02 1.213346e+02 9.912761e+02
9.936523e-02 1.213615e+02 9.781425e+02
1.000366e-01 1.214088e+02 9.654335e+02
1.007080e-01 1.214761e+02 9.531317e+02
1.013794e-01 1.215627e+02 9.412199e+02
1.020508e-01 1.216681e+02 9.296815e+02
1.027222e-01 1.217917e+02 9.185007e+02
1.033936e-01 1.219329e+02 9.076617e+02
1.040649e-01 1.220910e+02 8.971496e+02
1.047363e-01 1.222654e+02 8.869497e+02
1.054077e-01 1.224554e+02 8.770479e+02
1.060791e-01 1.226604e+02 8.674307e+02
1.067505e-01 1.228796e+02 8.580848e+02
1.074219e-01 1.231124e+02 8.489975e+02
1.087646e-01 1.236158e+02 8.315501e+02
1.101074e-01 1.241648e+02 8.149958e+02
1.114502e-01 1.247537e+02 7.992485e+02
1.127930e-01 1.253766e+02 7.842285e+02
1.141357e-01 1.260278e+02 7.698627e+02
1.154785e-01 1.267016e+02 7.560837e+02
1.168213e-01 1.273923e+02 7.428298e+02
1.181641e-01 1.280944e+02 7.300446e+02
1.195068e-01 1.288025e+02 7.176769e+02
1.208496e-01 1.295115e+02 7.056800e+02
1.215210e-01 1.298647e+02 6.998074e+02
1.221924e-01 1.302162e+02 6.940121e+02
1.228638e-01 1.305656e+02 6.882894e+02
1.235352e-01 1.309120e+02 6.826351e+02
1.242065e-01 1.312551e+02 6.770449e+02
1.248779e-01 1.315943e+02 6.715151e+02
1.255493e-01 1.319290e+02 6.660419e+02
1.262207e-01 1.322586e+02 6.606219e+02
1.268921e-01 1.325828e+02 6.552518e+02
1.275635e-01 1.329010e+02 6.499286e+02
1.282349e-01 1.332127e+02 6.446493e+02
1.289062e-01 1.335175e+02 6.394113e+02
1.295776e-01 1.338149e+02 6.342121e+02
1.302490e-01 1.341046e+02 6.290494e+02
1.309204e-01 1.343860e+02 6.239208e+02
1.315918e-01 1.346589e+02 6.188245e+02
1.322632e-01 1.349228e+02 6.137585e+02
1.329346e-01 1.351774e+02 6.087211e+02
1.336060e-01 1.354224e+02 6.037107e+02
1.342773e-01 1.356573e+02 5.987258e+02
1.349487e-01 1.358820e+02 5.937650e+02
1.356201e-01 1.360962e+02 5.888272e+02
1.362915e-01 1.362995e+02 5.839111e+02
1.369629e-01 1.364917e+02 5.790158e+02
1.376343e-01 1.366725e+02 5.741403e+02
1.383057e-01 1.368418e+02 5.692839e+02
1.389771e-01 1.369993e+02 5.644458e+02
1.396484e-01 1.371448e+02 5.596253e+02
1.403198e-01 1.372782e+02 5.548220e+02
1.409912e-01 1.373993e+02 5.500353e+02
1.411591e-01 1.374276e+02 5.488412e+02
1.413269e-01 1.374552e+02 5.476481e+02
1.414948e-01 1.374819e+02 5.464559e+02
1.416626e-01 1.375079e+02 5.452648e+02
1.418304e-01 1.375331e+02 5.440747e+02
1.419983e-01 1.375575e+02 5.428855e+02
1.421661e-01 1.375812e+02 5.416974e+02
1.423340e-01 1.376040e+02 5.405102e+02
1.425018e-01 1.376260e+02 5.393240e+02
1.426697e-01 1.376472e+02 5.381388e+02
1.428375e-01 1.376677e+02 5.369545e+02
1.430054e-01 1.376873e+02 5.357712e+02
1.431732e-01 1.377062e+02 5.345889e+02
1.433411e-01 1.377242e+02 5.334075e+02
1.435089e-01 1.377414e+02 5.322271e+02
1.436768e-01 1.377579e+02 5.310477e+02
1.438446e-01 1.377735e+02 5.298692e+02
1.440125e-01 1.377883e+02 5.286916e+02
1.441803e-01 1.378023e+02 5.275150e+02
1.443481e-01 1.378155e+02 5.263394e+02
1.446838e-01 1.378395e+02 5.239909e+02
1.450195e-01 1.378602e+02 5.216462e+02
1.453552e-01 1.378777e+02 5.193053e+02
1.456909e-01 1.378919e+02 5.169682e+02
1.460266e-01 1.379028e+02 5.146349e+02
1.463623e-01 1.379105e+02 5.123053e+02
1.466980e-01 1.379148e+02 5.099795e+02
1.470337e-01 1.379159e+02 5.076575e+02
1.473694e-01 1.379137e+02 5.053394e+02
1.477051e-01 1.379083e+02 5.030250e+02
1.483765e-01 1.378875e+02 4.984080e+02
1.490479e-01 1.378536e+02 4.938064e+02
1.497192e-01 1.378065e+02 4.892206e+02
1.503906e-01 1.377464e+02 4.846508e+02
1.510620e-01 1.376733e+02 4.800972e+02
1.517334e-01 1.375871e+02 4.755602e+02
1.524048e-01 1.374880e+02 4.710399e+02
1.530762e-01 1.373760e+02 4.665368e+02
1.537476e-01 1.372513e+02 4.620512e+02
1.544189e-01 1.371139e+02 4.575835e+02
1.550903e-01 1.369638e+02 4.531339e+02
1.557617e-01 1.368013e+02 4.487030e+02
1.564331e-01 1.366265e+02 4.442911e+02
1.571045e-01 1.364393e+02 4.398986e+02
1.577759e-01 1.362401e+02 4.355259e+02
1.584473e-01 1.360290e+02 4.311735e+02
1.591187e-01 1.358060e+02 4.268418e+02
1.597900e-01 1.355714e+02 4.225312e+02
1.604614e-01 1.353253e+02 4.182422e+02
1.611328e-01 1.350679e+02 4.139752e+02
1.618042e-01 1.347994e+02 4.097306e+02
1.624756e-01 1.345199e+02 4.055089e+02
1.631470e-01 1.342297e+02 4.013105e+02
1.638184e-01 1.339289e+02 3.971359e+02
1.644897e-01 1.336177e+02 3.929854e+02
1.651611e-01 1.332964e+02 3.888596e+02
1.658325e-01 1.329651e+02 3.847587e+02
1.665039e-01 1.326241e+02 3.806833e+02
1.671753e-01 1.322736e+02 3.766337e+02
1.678467e-01 1.319138e+02 3.726104e+02
1.685181e-01 1.315450e+02 3.686137e+02
1.691895e-01 1.311673e+02 3.646441e+02
1.698608e-01 1.307810e+02 3.607018e+02
1.705322e-01 1.303864e+02 3.567873e+02
1.712036e-01 1.299836e+02 3.529009e+02
1.718750e-01 1.295729e+02 3.490430e+02
1.725464e-01 1.291546e+02 3.452139e+02
1.732178e-01 1.287289e+02 3.414140e+02
1.738892e-01 1.282960e+02 3.376434e+02
1.745605e-01 1.278562e+02 3.339026e+02
1.752319e-01 1.274098e+02 3.301919e+02
1.759033e-01 1.269569e+02 3.265115e+02
1.765747e-01 1.264979e+02 3.228617e+02
1.772461e-01 1.260330e+02 3.192427e+02
1.779175e-01 1.255624e+02 3.156548e+02
1.785889e-01 1.250863e+02 3.120982e+02
1.792603e-01 1.246052e+02 3.085732e+02
1.799316e-01 1.241191e+02 3.050799e+02
1.806030e-01 1.236283e+02 3.016185e+02
1.812744e-01 1.231331e+02 2.981893e+02
1.819458e-01 1.226338e+02 2.947923e+02
1.826172e-01 1.221305e+02 2.914279e+02
1.832886e-01 1.216236e+02 2.880960e+02
1.839600e-01 1.211132e+02 2.847968e+02
1.846313e-01 1.205997e+02 2.815305e+02
1.853027e-01 1.200832e+02 2.782971e+02
1.859741e-01 1.195640e+02 2.750968e+02
1.866455e-01 1.190423e+02 2.719296e+02
1.873169e-01 1.185184e+02 2.687956e+02
1.879883e-01 1.179926e+02 2.656949e+02
1.906738e-01 1.158737e+02 2.536255e+02
1.933594e-01 1.137412e+02 2.420903e+02
1.960449e-01 1.116087e+02 2.310878e+02
1.987305e-01 1.094894e+02 2.206142e+02
2.014160e-01 1.073956e+02 2.106631e+02
2.041016e-01 1.053384e+02 2.012261e+02
2.067871e-01 1.033285e+02 1.922929e+02
2.094727e-01 1.013752e+02 1.838515e+02
2.121582e-01 9.948720e+01 1.758886e+02
2.148438e-01 9.767202e+01 1.683894e+02
2.161865e-01 9.679385e+01 1.648089e+02
2.175293e-01 9.593630e+01 1.613383e+02
2.188721e-01 9.510004e+01 1.579757e+02
2.202148e-01 9.428572e+01 1.547187e+02
2.215576e-01 9.349390e+01 1.515654e+02
2.229004e-01 9.272509e+01 1.485134e+02
2.242432e-01 9.197977e+01 1.455607e+02
2.255859e-01 9.125833e+01 1.427048e+02
2.269287e-01 9.056114e+01 1.399436e+02
2.282715e-01 8.988849e+01 1.372748e+02
2.296143e-01 8.924066e+01 1.346962e+02
2.309570e-01 8.861783e+01 1.322053e+02
2.322998e-01 8.802018e+01 1.298000e+02
2.336426e-01 8.744783e+01 1.274780e+02
2.349854e-01 8.690083e+01 1.252370e+02
2.363281e-01 8.637923e+01 1.230747e+02
2.376709e-01 8.588301e+01 1.209889e+02
2.390137e-01 8.541213e+01 1.189773e+02
2.403564e-01 8.496648e+01 1.170378e+02
2.416992e-01 8.454596e+01 1.151682e+02
2.430420e-01 8.415039e+01 1.133662e+02
2.443848e-01 8.377959e+01 1.116298e+02
2.457275e-01 8.343333e+01 1.099568e+02
2.470703e-01 8.311135e+01 1.083451e+02
2.484131e-01 8.281338e+01 1.067927e+02
2.497559e-01 8.253910e+01 1.052976e+02
2.510986e-01 8.228817e+01 1.038577e+02
2.524414e-01 8.206023e+01 1.024712e+02
2.537842e-01 8.185490e+01 1.011360e+02
2.551270e-01 8.167177e+01 9.985031e+01
2.564697e-01 8.151041e+01 9.861228e+01
2.578125e-01 8.137038e+01 9.742010e+01
2.591553e-01 8.125122e+01 9.627198e+01
2.604980e-01 8.115244e+01 9.516621e+01
2.618408e-01 8.107356e+01 9.410109e+01
2.631836e-01 8.101406e+01 9.307497e+01
2.645264e-01 8.097342e+01 9.208623e+01
2.658691e-01 8.095112e+01 9.113331e+01
2.672119e-01 8.094661e+01 9.021467e+01
2.685547e-01 8.095934e+01 8.932883e+01
2.698975e-01 8.098876e+01 8.847433e+01
2.712402e-01 8.103429e+01 8.764976e+01
2.725830e-01 8.109537e+01 8.685376e+01
