# 
# Output from RAtom program.
# 
# Total radial electron density.
# The first column contains radius $r$ in bohr units.
# The second column holds $\rho(r)$.
# The third column holds $\tilde{\rho}(r) = \rho(r) / (\pi * r * r)$
# 
# Use this file with gnuplot to create the plot.
# 
# R     Rho     RhoTilde
#
0.000000e+00 0.000000e+00 1.174042e+05
1.831055e-04 4.847848e-02 1.150632e+05
3.662109e-04 1.900475e-01 1.127690e+05
5.493164e-04 4.190812e-01 1.105206e+05
7.324219e-04 7.301794e-01 1.083171e+05
9.155273e-04 1.118160e+00 1.061577e+05
1.098633e-03 1.578053e+00 1.040415e+05
1.281738e-03 2.105091e+00 1.019676e+05
1.464844e-03 2.694705e+00 9.993526e+04
1.647949e-03 3.342516e+00 9.794358e+04
1.831055e-03 4.044329e+00 9.599178e+04
2.014160e-03 4.796129e+00 9.407907e+04
2.197266e-03 5.594071e+00 9.220469e+04
2.380371e-03 6.434477e+00 9.036787e+04
2.563477e-03 7.313829e+00 8.856788e+04
2.746582e-03 8.228766e+00 8.680399e+04
2.929688e-03 9.176073e+00 8.507548e+04
3.112793e-03 1.015268e+01 8.338165e+04
3.295898e-03 1.115567e+01 8.172182e+04
3.479004e-03 1.218223e+01 8.009532e+04
3.662109e-03 1.322971e+01 7.850148e+04
4.028320e-03 1.537738e+01 7.540923e+04
4.394531e-03 1.757979e+01 7.244005e+04
4.760742e-03 1.981985e+01 6.958910e+04
5.126953e-03 2.208215e+01 6.685175e+04
5.493164e-03 2.435282e+01 6.422354e+04
5.859375e-03 2.661944e+01 6.170018e+04
6.225586e-03 2.887091e+01 5.927754e+04
6.591797e-03 3.109739e+01 5.695167e+04
6.958008e-03 3.329016e+01 5.471876e+04
7.324219e-03 3.544157e+01 5.257514e+04
7.507324e-03 3.649963e+01 5.153572e+04
7.690430e-03 3.754493e+01 5.051731e+04
7.873535e-03 3.857675e+01 4.951950e+04
8.056641e-03 3.959446e+01 4.854187e+04
8.239746e-03 4.059745e+01 4.758404e+04
8.422852e-03 4.158520e+01 4.664559e+04
8.605957e-03 4.255718e+01 4.572615e+04
8.789062e-03 4.351296e+01 4.482534e+04
8.972168e-03 4.445210e+01 4.394279e+04
9.155273e-03 4.537423e+01 4.307812e+04
9.338379e-03 4.627902e+01 4.223099e+04
9.521484e-03 4.716616e+01 4.140105e+04
9.704590e-03 4.803539e+01 4.058794e+04
9.887695e-03 4.888647e+01 3.979135e+04
1.007080e-02 4.971920e+01 3.901093e+04
1.025391e-02 5.053342e+01 3.824636e+04
1.043701e-02 5.132897e+01 3.749733e+04
1.062012e-02 5.210575e+01 3.676353e+04
1.080322e-02 5.286367e+01 3.604465e+04
1.098633e-02 5.360266e+01 3.534039e+04
1.116943e-02 5.432269e+01 3.465047e+04
1.135254e-02 5.502373e+01 3.397458e+04
1.153564e-02 5.570580e+01 3.331247e+04
1.171875e-02 5.636891e+01 3.266384e+04
1.190186e-02 5.701312e+01 3.202843e+04
1.208496e-02 5.763849e+01 3.140597e+04
1.226807e-02 5.824510e+01 3.079621e+04
1.245117e-02 5.883303e+01 3.019889e+04
1.263428e-02 5.940242e+01 2.961375e+04
1.281738e-02 5.995338e+01 2.904057e+04
1.300049e-02 6.048606e+01 2.847909e+04
1.318359e-02 6.100060e+01 2.792908e+04
1.336670e-02 6.149719e+01 2.739032e+04
1.354980e-02 6.197598e+01 2.686257e+04
1.373291e-02 6.243718e+01 2.634561e+04
1.391602e-02 6.288098e+01 2.583923e+04
1.409912e-02 6.330758e+01 2.534322e+04
1.428223e-02 6.371722e+01 2.485737e+04
1.446533e-02 6.411010e+01 2.438146e+04
1.464844e-02 6.448646e+01 2.391531e+04
1.501465e-02 6.519060e+01 2.301149e+04
1.538086e-02 6.583161e+01 2.214437e+04
1.574707e-02 6.641157e+01 2.131250e+04
1.611328e-02 6.693263e+01 2.051446e+04
1.647949e-02 6.739699e+01 1.974890e+04
1.684570e-02 6.780688e+01 1.901453e+04
1.721191e-02 6.816459e+01 1.831010e+04
1.757812e-02 6.847242e+01 1.763440e+04
1.794434e-02 6.873268e+01 1.698629e+04
1.831055e-02 6.894767e+01 1.636467e+04
1.867676e-02 6.911972e+01 1.576846e+04
1.904297e-02 6.925112e+01 1.519664e+04
1.940918e-02 6.934414e+01 1.464824e+04
1.977539e-02 6.940103e+01 1.412232e+04
2.014160e-02 6.942403e+01 1.361796e+04
2.050781e-02 6.941531e+01 1.313429e+04
2.087402e-02 6.937703e+01 1.267049e+04
2.124023e-02 6.931129e+01 1.222575e+04
2.160645e-02 6.922016e+01 1.179930e+04
2.197266e-02 6.910563e+01 1.139039e+04
2.270508e-02 6.881421e+01 1.062239e+04
2.343750e-02 6.845204e+01 9.916399e+03
2.416992e-02 6.803327e+01 9.267465e+03
2.490234e-02 6.757107e+01 8.671025e+03
2.563477e-02 6.707768e+01 8.122869e+03
2.636719e-02 6.656438e+01 7.619113e+03
2.709961e-02 6.604150e+01 7.156176e+03
2.783203e-02 6.551844e+01 6.730756e+03
2.856445e-02 6.500367e+01 6.339809e+03
2.929688e-02 6.450481e+01 5.980529e+03
2.966309e-02 6.426348e+01 5.811948e+03
3.002930e-02 6.402859e+01 5.650329e+03
3.039551e-02 6.380086e+01 5.495381e+03
3.076172e-02 6.358095e+01 5.346825e+03
3.112793e-02 6.336949e+01 5.204390e+03
3.149414e-02 6.316705e+01 5.067820e+03
3.186035e-02 6.297417e+01 4.936867e+03
3.222656e-02 6.279132e+01 4.811293e+03
3.259277e-02 6.261896e+01 4.690870e+03
3.295898e-02 6.245749e+01 4.575378e+03
3.332520e-02 6.230727e+01 4.464610e+03
3.369141e-02 6.216864e+01 4.358361e+03
3.405762e-02 6.204188e+01 4.256441e+03
3.442383e-02 6.192725e+01 4.158662e+03
3.479004e-02 6.182497e+01 4.064847e+03
3.515625e-02 6.173523e+01 3.974826e+03
3.552246e-02 6.165818e+01 3.888434e+03
3.588867e-02 6.159396e+01 3.805515e+03
3.625488e-02 6.154266e+01 3.725919e+03
3.662109e-02 6.150436e+01 3.649500e+03
3.698730e-02 6.147909e+01 3.576121e+03
3.735352e-02 6.146688e+01 3.505648e+03
3.771973e-02 6.146772e+01 3.437955e+03
3.808594e-02 6.148158e+01 3.372919e+03
3.845215e-02 6.150842e+01 3.310423e+03
3.881836e-02 6.154816e+01 3.250356e+03
3.918457e-02 6.160072e+01 3.192609e+03
3.955078e-02 6.166598e+01 3.137080e+03
3.991699e-02 6.174382e+01 3.083671e+03
4.028320e-02 6.183409e+01 3.032286e+03
4.064941e-02 6.193664e+01 2.982835e+03
4.101562e-02 6.205129e+01 2.935231e+03
4.138184e-02 6.217786e+01 2.889391e+03
4.174805e-02 6.231614e+01 2.845236e+03
4.211426e-02 6.246593e+01 2.802690e+03
4.248047e-02 6.262699e+01 2.761678e+03
4.284668e-02 6.279910e+01 2.722132e+03
4.321289e-02 6.298201e+01 2.683985e+03
4.357910e-02 6.317547e+01 2.647171e+03
4.394531e-02 6.337922e+01 2.611631e+03
4.467773e-02 6.381649e+01 2.544139e+03
4.541016e-02 6.429162e+01 2.481067e+03
4.614258e-02 6.480228e+01 2.422014e+03
4.687500e-02 6.534609e+01 2.366612e+03
4.760742e-02 6.592062e+01 2.314526e+03
4.833984e-02 6.652339e+01 2.265448e+03
4.907227e-02 6.715193e+01 2.219098e+03
4.980469e-02 6.780373e+01 2.175221e+03
5.053711e-02 6.847631e+01 2.133584e+03
5.126953e-02 6.916718e+01 2.093975e+03
5.200195e-02 6.987390e+01 2.056202e+03
5.273438e-02 7.059405e+01 2.020090e+03
5.346680e-02 7.132528e+01 1.985479e+03
5.419922e-02 7.206527e+01 1.952226e+03
5.493164e-02 7.281175e+01 1.920200e+03
5.566406e-02 7.356253e+01 1.889283e+03
5.639648e-02 7.431549e+01 1.859368e+03
5.712891e-02 7.506857e+01 1.830360e+03
5.786133e-02 7.581980e+01 1.802171e+03
5.859375e-02 7.656727e+01 1.774724e+03
5.932617e-02 7.730919e+01 1.747948e+03
6.005859e-02 7.804380e+01 1.721782e+03
6.079102e-02 7.876946e+01 1.696169e+03
6.152344e-02 7.948461e+01 1.671060e+03
6.225586e-02 8.018778e+01 1.646409e+03
6.298828e-02 8.087757e+01 1.622179e+03
6.372070e-02 8.155268e+01 1.598333e+03
6.445312e-02 8.221189e+01 1.574841e+03
6.518555e-02 8.285408e+01 1.551677e+03
6.591797e-02 8.347818e+01 1.528817e+03
6.665039e-02 8.408324e+01 1.506240e+03
6.738281e-02 8.466838e+01 1.483929e+03
6.811523e-02 8.523279e+01 1.461869e+03
6.884766e-02 8.577574e+01 1.440046e+03
6.958008e-02 8.629658e+01 1.418450e+03
7.031250e-02 8.679474e+01 1.397071e+03
7.104492e-02 8.726972e+01 1.375902e+03
7.177734e-02 8.772109e+01 1.354938e+03
7.250977e-02 8.814848e+01 1.334172e+03
7.324219e-02 8.855158e+01 1.313602e+03
7.360840e-02 8.874395e+01 1.303389e+03
7.397461e-02 8.893017e+01 1.293224e+03
7.434082e-02 8.911022e+01 1.283107e+03
7.470703e-02 8.928408e+01 1.273037e+03
7.507324e-02 8.945173e+01 1.263015e+03
7.543945e-02 8.961317e+01 1.253040e+03
7.580566e-02 8.976840e+01 1.243112e+03
7.617188e-02 8.991740e+01 1.233231e+03
7.653809e-02 9.006018e+01 1.223398e+03
7.690430e-02 9.019675e+01 1.213612e+03
7.708740e-02 9.026271e+01 1.208737e+03
7.727051e-02 9.032711e+01 1.203873e+03
7.745361e-02 9.038997e+01 1.199022e+03
7.763672e-02 9.045128e+01 1.194182e+03
7.781982e-02 9.051104e+01 1.189354e+03
7.800293e-02 9.056925e+01 1.184538e+03
7.818604e-02 9.062593e+01 1.179734e+03
7.836914e-02 9.068106e+01 1.174942e+03
7.855225e-02 9.073466e+01 1.170162e+03
7.873535e-02 9.078672e+01 1.165394e+03
7.891846e-02 9.083725e+01 1.160638e+03
7.910156e-02 9.088625e+01 1.155894e+03
7.928467e-02 9.093372e+01 1.151163e+03
7.946777e-02 9.097967e+01 1.146443e+03
7.965088e-02 9.102410e+01 1.141735e+03
7.983398e-02 9.106702e+01 1.137040e+03
8.001709e-02 9.110842e+01 1.132356e+03
8.020020e-02 9.114832e+01 1.127685e+03
8.038330e-02 9.118671e+01 1.123026e+03
8.056641e-02 9.122360e+01 1.118380e+03
8.129883e-02 9.135625e+01 1.099917e+03
8.203125e-02 9.146528e+01 1.081652e+03
8.276367e-02 9.155102e+01 1.063589e+03
8.349609e-02 9.161383e+01 1.045728e+03
8.422852e-02 9.165413e+01 1.028073e+03
8.496094e-02 9.167233e+01 1.010624e+03
8.569336e-02 9.166888e+01 9.933853e+02
8.642578e-02 9.164426e+01 9.763573e+02
8.715820e-02 9.159897e+01 9.595425e+02
8.789062e-02 9.153354e+01 9.429426e+02
8.862305e-02 9.144849e+01 9.265595e+02
8.935547e-02 9.134438e+01 9.103946e+02
9.008789e-02 9.122178e+01 8.944495e+02
9.082031e-02 9.108127e+01 8.787255e+02
9.155273e-02 9.092344e+01 8.632237e+02
9.228516e-02 9.074891e+01 8.479453e+02
9.301758e-02 9.055828e+01 8.328911e+02
9.375000e-02 9.035217e+01 8.180619e+02
9.448242e-02 9.013121e+01 8.034582e+02
9.521484e-02 8.989603e+01 7.890805e+02
9.594727e-02 8.964726e+01 7.749290e+02
9.667969e-02 8.938553e+01 7.610039e+02
9.741211e-02 8.911149e+01 7.473051e+02
9.814453e-02 8.882578e+01 7.338325e+02
9.887695e-02 8.852901e+01 7.205856e+02
9.960938e-02 8.822184e+01 7.075641e+02
1.003418e-01 8.790488e+01 6.947673e+02
1.010742e-01 8.757876e+01 6.821944e+02
1.018066e-01 8.724411e+01 6.698445e+02
1.025391e-01 8.690153e+01 6.577167e+02
1.040039e-01 8.619503e+01 6.341223e+02
1.054688e-01 8.546404e+01 6.114007e+02
1.069336e-01 8.471319e+01 5.895394e+02
1.083984e-01 8.394698e+01 5.685245e+02
1.098633e-01 8.316971e+01 5.483403e+02
1.113281e-01 8.238553e+01 5.289703e+02
1.127930e-01 8.159839e+01 5.103965e+02
1.142578e-01 8.081203e+01 4.925999e+02
1.157227e-01 8.003000e+01 4.755610e+02
1.171875e-01 7.925565e+01 4.592591e+02
1.186523e-01 7.849207e+01 4.436733e+02
1.201172e-01 7.774218e+01 4.287820e+02
1.215820e-01 7.700867e+01 4.145634e+02
1.230469e-01 7.629400e+01 4.009953e+02
1.245117e-01 7.560043e+01 3.880556e+02
1.259766e-01 7.493003e+01 3.757219e+02
1.274414e-01 7.428461e+01 3.639719e+02
1.289062e-01 7.366583e+01 3.527835e+02
1.303711e-01 7.307513e+01 3.421347e+02
1.318359e-01 7.251376e+01 3.320037e+02
1.325684e-01 7.224441e+01 3.271257e+02
1.333008e-01 7.198277e+01 3.223690e+02
1.340332e-01 7.172896e+01 3.177312e+02
1.347656e-01 7.148307e+01 3.132096e+02
1.354980e-01 7.124517e+01 3.088016e+02
1.362305e-01 7.101535e+01 3.045046e+02
1.369629e-01 7.079367e+01 3.003162e+02
1.376953e-01 7.058018e+01 2.962338e+02
1.384277e-01 7.037492e+01 2.922549e+02
1.391602e-01 7.017793e+01 2.883772e+02
1.398926e-01 6.998924e+01 2.845981e+02
1.406250e-01 6.980886e+01 2.809154e+02
1.413574e-01 6.963680e+01 2.773267e+02
1.420898e-01 6.947306e+01 2.738297e+02
1.428223e-01 6.931763e+01 2.704220e+02
1.435547e-01 6.917049e+01 2.671015e+02
1.442871e-01 6.903163e+01 2.638659e+02
1.450195e-01 6.890100e+01 2.607130e+02
1.457520e-01 6.877858e+01 2.576407e+02
1.464844e-01 6.866430e+01 2.546470e+02
1.472168e-01 6.855813e+01 2.517297e+02
1.479492e-01 6.846000e+01 2.488867e+02
1.486816e-01 6.836985e+01 2.461161e+02
1.494141e-01 6.828760e+01 2.434160e+02
1.501465e-01 6.821319e+01 2.407843e+02
1.508789e-01 6.814651e+01 2.382192e+02
1.516113e-01 6.808750e+01 2.357188e+02
1.523438e-01 6.803605e+01 2.332813e+02
1.530762e-01 6.799206e+01 2.309049e+02
1.538086e-01 6.795544e+01 2.285878e+02
1.539917e-01 6.794742e+01 2.280177e+02
1.541748e-01 6.793985e+01 2.274510e+02
1.543579e-01 6.793274e+01 2.268880e+02
1.545410e-01 6.792607e+01 2.263284e+02
1.547241e-01 6.791985e+01 2.257724e+02
1.549072e-01 6.791407e+01 2.252198e+02
1.550903e-01 6.790874e+01 2.246706e+02
1.552734e-01 6.790385e+01 2.241249e+02
1.554565e-01 6.789939e+01 2.235826e+02
1.556396e-01 6.789538e+01 2.230436e+02
1.557312e-01 6.789353e+01 2.227754e+02
1.558228e-01 6.789180e+01 2.225080e+02
1.559143e-01 6.789017e+01 2.222415e+02
1.560059e-01 6.788865e+01 2.219757e+02
1.560974e-01 6.788724e+01 2.217108e+02
1.561890e-01 6.788594e+01 2.214467e+02
1.562805e-01 6.788474e+01 2.211834e+02
1.563721e-01 6.788365e+01 2.209210e+02
1.564636e-01 6.788267e+01 2.206593e+02
1.565552e-01 6.788180e+01 2.203985e+02
1.566467e-01 6.788103e+01 2.201385e+02
1.567383e-01 6.788037e+01 2.198792e+02
1.568298e-01 6.787982e+01 2.196208e+02
1.569214e-01 6.787937e+01 2.193631e+02
1.570129e-01 6.787903e+01 2.191063e+02
1.571045e-01 6.787879e+01 2.188502e+02
1.571960e-01 6.787866e+01 2.185950e+02
1.572876e-01 6.787863e+01 2.183405e+02
1.573792e-01 6.787871e+01 2.180868e+02
1.574707e-01 6.787889e+01 2.178338e+02
1.578369e-01 6.788065e+01 2.168298e+02
1.582031e-01 6.788407e+01 2.158380e+02
1.585693e-01 6.788912e+01 2.148582e+02
1.589355e-01 6.789579e+01 2.138902e+02
1.593018e-01 6.790406e+01 2.129339e+02
1.596680e-01 6.791391e+01 2.119890e+02
1.600342e-01 6.792533e+01 2.110554e+02
1.604004e-01 6.793830e+01 2.101329e+02
1.607666e-01 6.795280e+01 2.092213e+02
1.611328e-01 6.796882e+01 2.083205e+02
1.625977e-01 6.804770e+01 2.048213e+02
1.640625e-01 6.814940e+01 2.014807e+02
1.655273e-01 6.827275e+01 1.982887e+02
1.669922e-01 6.841653e+01 1.952355e+02
1.684570e-01 6.857954e+01 1.923120e+02
1.699219e-01 6.876053e+01 1.895094e+02
1.713867e-01 6.895826e+01 1.868195e+02
1.728516e-01 6.917147e+01 1.842343e+02
1.743164e-01 6.939891e+01 1.817466e+02
1.757812e-01 6.963932e+01 1.793492e+02
1.787109e-01 7.015405e+01 1.747997e+02
1.816406e-01 7.070578e+01 1.705372e+02
1.845703e-01 7.128484e+01 1.665189e+02
1.875000e-01 7.188188e+01 1.627073e+02
1.904297e-01 7.248793e+01 1.590694e+02
1.933594e-01 7.309444e+01 1.555765e+02
1.962891e-01 7.369336e+01 1.522041e+02
1.992188e-01 7.427717e+01 1.489310e+02
2.021484e-01 7.483887e+01 1.457393e+02
2.050781e-01 7.537206e+01 1.426139e+02
2.065430e-01 7.562611e+01 1.410721e+02
2.080078e-01 7.587090e+01 1.395424e+02
2.094727e-01 7.610577e+01 1.380235e+02
2.109375e-01 7.633012e+01 1.365144e+02
2.124023e-01 7.654340e+01 1.350141e+02
2.138672e-01 7.674507e+01 1.335218e+02
2.153320e-01 7.693464e+01 1.320367e+02
2.167969e-01 7.711164e+01 1.305582e+02
2.182617e-01 7.727566e+01 1.290856e+02
2.197266e-01 7.742630e+01 1.276185e+02
2.211914e-01 7.756320e+01 1.261564e+02
2.226562e-01 7.768605e+01 1.246991e+02
2.241211e-01 7.779455e+01 1.232463e+02
2.255859e-01 7.788845e+01 1.217977e+02
2.270508e-01 7.796751e+01 1.203532e+02
2.285156e-01 7.803154e+01 1.189128e+02
2.299805e-01 7.808037e+01 1.174763e+02
2.314453e-01 7.811386e+01 1.160437e+02
2.329102e-01 7.813190e+01 1.146151e+02
2.343750e-01 7.813440e+01 1.131905e+02
2.358398e-01 7.812132e+01 1.117700e+02
2.373047e-01 7.809260e+01 1.103538e+02
2.387695e-01 7.804826e+01 1.089420e+02
2.402344e-01 7.798829e+01 1.075348e+02
2.416992e-01 7.791274e+01 1.061324e+02
2.431641e-01 7.782168e+01 1.047350e+02
2.446289e-01 7.771518e+01 1.033428e+02
2.460938e-01 7.759334e+01 1.019561e+02
2.475586e-01 7.745629e+01 1.005752e+02
2.490234e-01 7.730416e+01 9.920020e+01
2.504883e-01 7.713711e+01 9.783149e+01
2.519531e-01 7.695532e+01 9.646933e+01
2.534180e-01 7.675897e+01 9.511400e+01
2.548828e-01 7.654826e+01 9.376578e+01
2.563477e-01 7.632343e+01 9.242497e+01
2.578125e-01 7.608469e+01 9.109184e+01
2.592773e-01 7.583230e+01 8.976669e+01
2.607422e-01 7.556650e+01 8.844980e+01
2.622070e-01 7.528757e+01 8.714145e+01
2.636719e-01 7.499579e+01 8.584192e+01
2.651367e-01 7.469144e+01 8.455148e+01
2.666016e-01 7.437481e+01 8.327040e+01
2.680664e-01 7.404622e+01 8.199894e+01
2.695312e-01 7.370597e+01 8.073736e+01
2.709961e-01 7.335438e+01 7.948590e+01
2.724609e-01 7.299178e+01 7.824482e+01
2.739258e-01 7.261849e+01 7.701433e+01
2.753906e-01 7.223486e+01 7.579467e+01
2.768555e-01 7.184122e+01 7.458605e+01
2.783203e-01 7.143791e+01 7.338868e+01
2.797852e-01 7.102529e+01 7.220276e+01
2.812500e-01 7.060370e+01 7.102848e+01
2.827148e-01 7.017348e+01 6.986601e+01
2.841797e-01 6.973501e+01 6.871553e+01
2.856445e-01 6.928862e+01 6.757720e+01
2.871094e-01 6.883467e+01 6.645117e+01
2.885742e-01 6.837352e+01 6.533758e+01
2.900391e-01 6.790552e+01 6.423655e+01
2.915039e-01 6.743103e+01 6.314823e+01
2.929688e-01 6.695040e+01 6.207271e+01
2.944336e-01 6.646397e+01 6.101010e+01
2.958984e-01 6.597211e+01 5.996049e+01
2.973633e-01 6.547515e+01 5.892397e+01
2.988281e-01 6.497345e+01 5.790061e+01
3.002930e-01 6.446734e+01 5.689048e+01
3.017578e-01 6.395717e+01 5.589363e+01
3.032227e-01 6.344327e+01 5.491012e+01
3.046875e-01 6.292598e+01 5.393999e+01
3.061523e-01 6.240561e+01 5.298325e+01
3.076172e-01 6.188251e+01 5.203995e+01
3.079834e-01 6.175134e+01 5.180622e+01
3.083496e-01 6.162003e+01 5.157334e+01
3.087158e-01 6.148858e+01 5.134129e+01
3.090820e-01 6.135699e+01 5.111009e+01
3.094482e-01 6.122527e+01 5.087973e+01
3.098145e-01 6.109342e+01 5.065020e+01
3.101807e-01 6.096145e+01 5.042152e+01
3.105469e-01 6.082936e+01 5.019368e+01
3.109131e-01 6.069716e+01 4.996668e+01
3.112793e-01 6.056486e+01 4.974052e+01
3.113708e-01 6.053176e+01 4.968412e+01
3.114624e-01 6.049867e+01 4.962776e+01
3.115540e-01 6.046556e+01 4.957146e+01
3.116455e-01 6.043245e+01 4.951521e+01
3.117371e-01 6.039933e+01 4.945901e+01
3.118286e-01 6.036621e+01 4.940286e+01
3.119202e-01 6.033308e+01 4.934677e+01
3.120117e-01 6.029994e+01 4.929073e+01
3.121033e-01 6.026680e+01 4.923474e+01
3.121948e-01 6.023366e+01 4.917880e+01
3.122864e-01 6.020050e+01 4.912292e+01
3.123779e-01 6.016735e+01 4.906709e+01
3.124695e-01 6.013418e+01 4.901131e+01
3.125610e-01 6.010101e+01 4.895559e+01
3.126526e-01 6.006784e+01 4.889991e+01
3.127441e-01 6.003466e+01 4.884429e+01
3.128357e-01 6.000148e+01 4.878873e+01
3.129272e-01 5.996829e+01 4.873321e+01
3.130188e-01 5.993509e+01 4.867775e+01
3.131104e-01 5.990189e+01 4.862234e+01
3.132935e-01 5.983548e+01 4.851168e+01
3.134766e-01 5.976905e+01 4.840122e+01
3.136597e-01 5.970260e+01 4.829098e+01
3.138428e-01 5.963613e+01 4.818095e+01
3.140259e-01 5.956964e+01 4.807112e+01
3.142090e-01 5.950314e+01 4.796151e+01
3.143921e-01 5.943662e+01 4.785210e+01
3.145752e-01 5.937008e+01 4.774291e+01
3.147583e-01 5.930353e+01 4.763392e+01
3.149414e-01 5.923697e+01 4.752514e+01
3.156738e-01 5.897058e+01 4.709213e+01
3.164062e-01 5.870400e+01 4.666247e+01
3.171387e-01 5.843727e+01 4.623615e+01
3.178711e-01 5.817042e+01 4.581316e+01
3.186035e-01 5.790350e+01 4.539352e+01
3.193359e-01 5.763654e+01 4.497720e+01
3.200684e-01 5.736956e+01 4.456421e+01
3.208008e-01 5.710262e+01 4.415454e+01
3.215332e-01 5.683573e+01 4.374818e+01
3.222656e-01 5.656894e+01 4.334512e+01
3.251953e-01 5.550339e+01 4.176583e+01
3.281250e-01 5.444196e+01 4.023882e+01
3.310547e-01 5.338664e+01 3.876352e+01
3.339844e-01 5.233931e+01 3.733927e+01
3.369141e-01 5.130177e+01 3.596534e+01
3.398438e-01 5.027569e+01 3.464093e+01
3.427734e-01 4.926266e+01 3.336519e+01
3.457031e-01 4.826416e+01 3.213722e+01
3.486328e-01 4.728157e+01 3.095605e+01
3.515625e-01 4.631618e+01 2.982070e+01
3.544922e-01 4.536918e+01 2.873014e+01
3.574219e-01 4.444165e+01 2.768331e+01
3.603516e-01 4.353459e+01 2.667914e+01
3.632812e-01 4.264890e+01 2.571651e+01
3.662109e-01 4.178540e+01 2.479431e+01
3.691406e-01 4.094481e+01 2.391142e+01
3.720703e-01 4.012776e+01 2.306668e+01
3.750000e-01 3.933482e+01 2.225896e+01
3.779297e-01 3.856646e+01 2.148710e+01
3.808594e-01 3.782308e+01 2.074998e+01
3.823242e-01 3.746085e+01 2.039408e+01
3.837891e-01 3.710499e+01 2.004644e+01
3.852539e-01 3.675552e+01 1.970691e+01
3.867188e-01 3.641247e+01 1.937536e+01
3.881836e-01 3.607584e+01 1.905164e+01
3.896484e-01 3.574568e+01 1.873561e+01
3.911133e-01 3.542197e+01 1.842713e+01
3.925781e-01 3.510474e+01 1.812607e+01
3.940430e-01 3.479399e+01 1.783230e+01
3.955078e-01 3.448972e+01 1.754566e+01
3.969727e-01 3.419193e+01 1.726603e+01
3.984375e-01 3.390061e+01 1.699328e+01
3.999023e-01 3.361576e+01 1.672727e+01
