# 
# Output from RAtom program.
# 
# Total radial electron density.
# The first column contains radius $r$ in bohr units.
# The second column holds $\rho(r)$.
# The third column holds $\tilde{\rho}(r) = \rho(r) / (\pi * r * r)$
# 
# Use this file with gnuplot to create the plot.
# 
# R     Rho     RhoTilde
#
0.000000e+00 0.000000e+00 2.653961e+03
7.324219e-04 1.747619e-02 2.592474e+03
1.464844e-03 6.828568e-02 2.532428e+03
2.197266e-03 1.500847e-01 2.473782e+03
2.929688e-03 2.606391e-01 2.416501e+03
3.662109e-03 3.978201e-01 2.360556e+03
4.394531e-03 5.596004e-01 2.305914e+03
5.126953e-03 7.440501e-01 2.252546e+03
5.859375e-03 9.493326e-01 2.200422e+03
6.591797e-03 1.173701e+00 2.149513e+03
7.324219e-03 1.415497e+00 2.099792e+03
8.056641e-03 1.673140e+00 2.051231e+03
8.789062e-03 1.945136e+00 2.003802e+03
9.521484e-03 2.230061e+00 1.957481e+03
1.025391e-02 2.526567e+00 1.912240e+03
1.098633e-02 2.833378e+00 1.868055e+03
1.171875e-02 3.149283e+00 1.824901e+03
1.245117e-02 3.473137e+00 1.782755e+03
1.318359e-02 3.803855e+00 1.741592e+03
1.391602e-02 4.140414e+00 1.701391e+03
1.464844e-02 4.481847e+00 1.662128e+03
1.611328e-02 5.175736e+00 1.586333e+03
1.757812e-02 5.878834e+00 1.514036e+03
1.904297e-02 6.585221e+00 1.445078e+03
2.050781e-02 7.289679e+00 1.379304e+03
2.197266e-02 7.987632e+00 1.316567e+03
2.343750e-02 8.675089e+00 1.256729e+03
2.490234e-02 9.348593e+00 1.199654e+03
2.636719e-02 1.000518e+01 1.145216e+03
2.783203e-02 1.064231e+01 1.093292e+03
2.929688e-02 1.125787e+01 1.043767e+03
3.002930e-02 1.155699e+01 1.019869e+03
3.076172e-02 1.185009e+01 9.965302e+02
3.149414e-02 1.213699e+01 9.737365e+02
3.222656e-02 1.241754e+01 9.514756e+02
3.295898e-02 1.269161e+01 9.297350e+02
3.369141e-02 1.295908e+01 9.085026e+02
3.442383e-02 1.321986e+01 8.877665e+02
3.515625e-02 1.347386e+01 8.675150e+02
3.588867e-02 1.372100e+01 8.477370e+02
3.662109e-02 1.396123e+01 8.284213e+02
3.735352e-02 1.419451e+01 8.095572e+02
3.808594e-02 1.442080e+01 7.911340e+02
3.881836e-02 1.464007e+01 7.731415e+02
3.955078e-02 1.485233e+01 7.555697e+02
4.028320e-02 1.505756e+01 7.384086e+02
4.101562e-02 1.525578e+01 7.216488e+02
4.174805e-02 1.544700e+01 7.052808e+02
4.248047e-02 1.563126e+01 6.892954e+02
4.321289e-02 1.580857e+01 6.736839e+02
4.394531e-02 1.597899e+01 6.584373e+02
4.541016e-02 1.629935e+01 6.290054e+02
4.687500e-02 1.659278e+01 6.009338e+02
4.833984e-02 1.685983e+01 5.741598e+02
4.980469e-02 1.710113e+01 5.486235e+02
5.126953e-02 1.731736e+01 5.242677e+02
5.273438e-02 1.750928e+01 5.010381e+02
5.419922e-02 1.767767e+01 4.788827e+02
5.566406e-02 1.782337e+01 4.577519e+02
5.712891e-02 1.794723e+01 4.375984e+02
5.859375e-02 1.805013e+01 4.183772e+02
6.005859e-02 1.813298e+01 4.000452e+02
6.152344e-02 1.819669e+01 3.825615e+02
6.298828e-02 1.824216e+01 3.658869e+02
6.445312e-02 1.827032e+01 3.499841e+02
6.591797e-02 1.828208e+01 3.348175e+02
6.738281e-02 1.827836e+01 3.203532e+02
6.884766e-02 1.826005e+01 3.065588e+02
7.031250e-02 1.822804e+01 2.934033e+02
7.177734e-02 1.818320e+01 2.808573e+02
7.324219e-02 1.812640e+01 2.688928e+02
7.470703e-02 1.805847e+01 2.574827e+02
7.617188e-02 1.798023e+01 2.466017e+02
7.763672e-02 1.789247e+01 2.362252e+02
7.910156e-02 1.779598e+01 2.263300e+02
8.056641e-02 1.769151e+01 2.168938e+02
8.203125e-02 1.757978e+01 2.078955e+02
8.349609e-02 1.746150e+01 1.993148e+02
8.496094e-02 1.733735e+01 1.911324e+02
8.642578e-02 1.720799e+01 1.833300e+02
8.789062e-02 1.707403e+01 1.758899e+02
9.082031e-02 1.679473e+01 1.620307e+02
9.375000e-02 1.650399e+01 1.494296e+02
9.667969e-02 1.620592e+01 1.379728e+02
9.960938e-02 1.590426e+01 1.275567e+02
1.025391e-01 1.560236e+01 1.180869e+02
1.054688e-01 1.530322e+01 1.094776e+02
1.083984e-01 1.500947e+01 1.016505e+02
1.113281e-01 1.472345e+01 9.453444e+01
1.142578e-01 1.444717e+01 8.806458e+01
1.171875e-01 1.418236e+01 8.218190e+01
1.201172e-01 1.393048e+01 7.683268e+01
1.230469e-01 1.369275e+01 7.196801e+01
1.259766e-01 1.347014e+01 6.754337e+01
1.289062e-01 1.326344e+01 6.351823e+01
1.318359e-01 1.307323e+01 5.985570e+01
1.347656e-01 1.289993e+01 5.652224e+01
1.376953e-01 1.274379e+01 5.348728e+01
1.406250e-01 1.260492e+01 5.072304e+01
1.435547e-01 1.248331e+01 4.820424e+01
1.464844e-01 1.237883e+01 4.590788e+01
1.472168e-01 1.235537e+01 4.536606e+01
1.479492e-01 1.233295e+01 4.483651e+01
1.486816e-01 1.231158e+01 4.431894e+01
1.494141e-01 1.229126e+01 4.381306e+01
1.501465e-01 1.227197e+01 4.331858e+01
1.508789e-01 1.225372e+01 4.283521e+01
1.516113e-01 1.223649e+01 4.236269e+01
1.523438e-01 1.222028e+01 4.190076e+01
1.530762e-01 1.220508e+01 4.144914e+01
1.538086e-01 1.219089e+01 4.100758e+01
1.541748e-01 1.218416e+01 4.079050e+01
1.545410e-01 1.217769e+01 4.057585e+01
1.549072e-01 1.217147e+01 4.036358e+01
1.552734e-01 1.216549e+01 4.015369e+01
1.556396e-01 1.215976e+01 3.994612e+01
1.560059e-01 1.215427e+01 3.974086e+01
1.563721e-01 1.214903e+01 3.953788e+01
1.567383e-01 1.214403e+01 3.933715e+01
1.571045e-01 1.213928e+01 3.913864e+01
1.574707e-01 1.213476e+01 3.894232e+01
1.578369e-01 1.213049e+01 3.874817e+01
1.582031e-01 1.212645e+01 3.855615e+01
1.585693e-01 1.212265e+01 3.836625e+01
1.589355e-01 1.211909e+01 3.817843e+01
1.593018e-01 1.211576e+01 3.799267e+01
1.596680e-01 1.211267e+01 3.780894e+01
1.600342e-01 1.210982e+01 3.762722e+01
1.604004e-01 1.210719e+01 3.744749e+01
1.607666e-01 1.210480e+01 3.726971e+01
1.611328e-01 1.210263e+01 3.709386e+01
1.625977e-01 1.209626e+01 3.640933e+01
1.640625e-01 1.209348e+01 3.575384e+01
1.655273e-01 1.209421e+01 3.512597e+01
1.669922e-01 1.209838e+01 3.452433e+01
1.684570e-01 1.210591e+01 3.394763e+01
1.699219e-01 1.211672e+01 3.339462e+01
1.713867e-01 1.213071e+01 3.286413e+01
1.728516e-01 1.214782e+01 3.235503e+01
1.743164e-01 1.216795e+01 3.186625e+01
1.757812e-01 1.219101e+01 3.139676e+01
1.787109e-01 1.224560e+01 3.051181e+01
1.816406e-01 1.231089e+01 2.969296e+01
1.845703e-01 1.238617e+01 2.893366e+01
1.875000e-01 1.247073e+01 2.822796e+01
1.904297e-01 1.256387e+01 2.757048e+01
1.933594e-01 1.266490e+01 2.695637e+01
1.962891e-01 1.277312e+01 2.638123e+01
1.992188e-01 1.288787e+01 2.584109e+01
2.021484e-01 1.300847e+01 2.533235e+01
2.050781e-01 1.313428e+01 2.485179e+01
2.080078e-01 1.326467e+01 2.439649e+01
2.109375e-01 1.339903e+01 2.396381e+01
2.138672e-01 1.353676e+01 2.355140e+01
2.167969e-01 1.367730e+01 2.315712e+01
2.197266e-01 1.382010e+01 2.277908e+01
2.226562e-01 1.396462e+01 2.241555e+01
2.255859e-01 1.411036e+01 2.206501e+01
2.285156e-01 1.425683e+01 2.172608e+01
2.314453e-01 1.440358e+01 2.139753e+01
2.343750e-01 1.455015e+01 2.107828e+01
2.402344e-01 1.484115e+01 2.046385e+01
2.460938e-01 1.512674e+01 1.987624e+01
2.519531e-01 1.540419e+01 1.931032e+01
2.578125e-01 1.567109e+01 1.876210e+01
2.636719e-01 1.592536e+01 1.822854e+01
2.695312e-01 1.616521e+01 1.770734e+01
2.753906e-01 1.638912e+01 1.719679e+01
2.812500e-01 1.659585e+01 1.669569e+01
2.871094e-01 1.678438e+01 1.620320e+01
2.929688e-01 1.695396e+01 1.571877e+01
2.944336e-01 1.699331e+01 1.559888e+01
2.958984e-01 1.703144e+01 1.547948e+01
2.973633e-01 1.706834e+01 1.536055e+01
2.988281e-01 1.710399e+01 1.524209e+01
3.002930e-01 1.713840e+01 1.512412e+01
3.017578e-01 1.717155e+01 1.500661e+01
3.032227e-01 1.720345e+01 1.488958e+01
3.046875e-01 1.723410e+01 1.477303e+01
3.061523e-01 1.726349e+01 1.465695e+01
3.076172e-01 1.729161e+01 1.454134e+01
3.079834e-01 1.729845e+01 1.451251e+01
3.083496e-01 1.730520e+01 1.448372e+01
3.087158e-01 1.731188e+01 1.445495e+01
3.090820e-01 1.731848e+01 1.442621e+01
3.094482e-01 1.732500e+01 1.439750e+01
3.098145e-01 1.733144e+01 1.436883e+01
3.101807e-01 1.733780e+01 1.434018e+01
3.105469e-01 1.734408e+01 1.431156e+01
3.109131e-01 1.735028e+01 1.428298e+01
3.112793e-01 1.735641e+01 1.425442e+01
3.114624e-01 1.735944e+01 1.424015e+01
3.116455e-01 1.736245e+01 1.422589e+01
3.118286e-01 1.736545e+01 1.421164e+01
3.120117e-01 1.736842e+01 1.419739e+01
3.121948e-01 1.737137e+01 1.418316e+01
3.123779e-01 1.737431e+01 1.416893e+01
3.125610e-01 1.737722e+01 1.415470e+01
3.127441e-01 1.738012e+01 1.414049e+01
3.129272e-01 1.738299e+01 1.412628e+01
3.131104e-01 1.738585e+01 1.411209e+01
3.132935e-01 1.738869e+01 1.409789e+01
3.134766e-01 1.739150e+01 1.408371e+01
3.136597e-01 1.739430e+01 1.406954e+01
3.138428e-01 1.739708e+01 1.405537e+01
3.140259e-01 1.739984e+01 1.404121e+01
3.142090e-01 1.740257e+01 1.402705e+01
3.143921e-01 1.740529e+01 1.401291e+01
3.145752e-01 1.740799e+01 1.399877e+01
3.147583e-01 1.741067e+01 1.398464e+01
3.149414e-01 1.741333e+01 1.397051e+01
3.156738e-01 1.742376e+01 1.391409e+01
3.164062e-01 1.743389e+01 1.385780e+01
3.171387e-01 1.744369e+01 1.380162e+01
3.178711e-01 1.745318e+01 1.374557e+01
3.186035e-01 1.746236e+01 1.368964e+01
3.193359e-01 1.747122e+01 1.363383e+01
3.200684e-01 1.747977e+01 1.357814e+01
3.208008e-01 1.748800e+01 1.352258e+01
3.215332e-01 1.749592e+01 1.346714e+01
3.222656e-01 1.750353e+01 1.341182e+01
3.251953e-01 1.753085e+01 1.319181e+01
3.281250e-01 1.755320e+01 1.297382e+01
3.310547e-01 1.757064e+01 1.275788e+01
3.339844e-01 1.758321e+01 1.254400e+01
3.369141e-01 1.759097e+01 1.233223e+01
3.398438e-01 1.759396e+01 1.212258e+01
3.427734e-01 1.759225e+01 1.191509e+01
3.457031e-01 1.758591e+01 1.170977e+01
3.486328e-01 1.757500e+01 1.150665e+01
3.515625e-01 1.755961e+01 1.130576e+01
3.544922e-01 1.753980e+01 1.110712e+01
3.574219e-01 1.751566e+01 1.091074e+01
3.603516e-01 1.748726e+01 1.071665e+01
3.632812e-01 1.745470e+01 1.052487e+01
3.662109e-01 1.741806e+01 1.033540e+01
3.691406e-01 1.737742e+01 1.014826e+01
3.720703e-01 1.733288e+01 9.963476e+00
3.750000e-01 1.728453e+01 9.781045e+00
3.779297e-01 1.723247e+01 9.600981e+00
3.808594e-01 1.717678e+01 9.423292e+00
3.837891e-01 1.711757e+01 9.247983e+00
3.867188e-01 1.705492e+01 9.075059e+00
3.896484e-01 1.698895e+01 8.904524e+00
3.925781e-01 1.691973e+01 8.736377e+00
3.955078e-01 1.684738e+01 8.570621e+00
3.984375e-01 1.677198e+01 8.407251e+00
4.013672e-01 1.669364e+01 8.246267e+00
4.042969e-01 1.661245e+01 8.087663e+00
4.072266e-01 1.652851e+01 7.931433e+00
4.101562e-01 1.644192e+01 7.777571e+00
4.160156e-01 1.626116e+01 7.476914e+00
4.218750e-01 1.607094e+01 7.185612e+00
4.277344e-01 1.587200e+01 6.903566e+00
4.335938e-01 1.566509e+01 6.630662e+00
4.394531e-01 1.545091e+01 6.366771e+00
4.453125e-01 1.523019e+01 6.111752e+00
4.511719e-01 1.500359e+01 5.865451e+00
4.570312e-01 1.477179e+01 5.627706e+00
4.628906e-01 1.453541e+01 5.398347e+00
4.687500e-01 1.429509e+01 5.177193e+00
4.804688e-01 1.380492e+01 4.758758e+00
4.921875e-01 1.330573e+01 4.370868e+00
5.039062e-01 1.280159e+01 4.011940e+00
5.156250e-01 1.229616e+01 3.680371e+00
5.273438e-01 1.179272e+01 3.374556e+00
5.390625e-01 1.129420e+01 3.092911e+00
5.507812e-01 1.080316e+01 2.833887e+00
5.625000e-01 1.032182e+01 2.595979e+00
5.742188e-01 9.852094e+00 2.377738e+00
5.859375e-01 9.395616e+00 2.177774e+00
5.888672e-01 9.283731e+00 2.130482e+00
5.917969e-01 9.172779e+00 2.084230e+00
5.947266e-01 9.062777e+00 2.038998e+00
5.976562e-01 8.953743e+00 1.994765e+00
6.005859e-01 8.845692e+00 1.951514e+00
6.035156e-01 8.738640e+00 1.909224e+00
6.064453e-01 8.632602e+00 1.867878e+00
6.093750e-01 8.527590e+00 1.827457e+00
6.123047e-01 8.423618e+00 1.787943e+00
6.152344e-01 8.320698e+00 1.749318e+00
6.159668e-01 8.295134e+00 1.739798e+00
6.166992e-01 8.269636e+00 1.730333e+00
6.174316e-01 8.244205e+00 1.720922e+00
6.181641e-01 8.218841e+00 1.711564e+00
6.188965e-01 8.193544e+00 1.702260e+00
6.196289e-01 8.168314e+00 1.693009e+00
6.203613e-01 8.143151e+00 1.683811e+00
6.210938e-01 8.118057e+00 1.674665e+00
6.218262e-01 8.093030e+00 1.665571e+00
6.225586e-01 8.068070e+00 1.656530e+00
6.227417e-01 8.061841e+00 1.654278e+00
6.229248e-01 8.055616e+00 1.652029e+00
6.231079e-01 8.049396e+00 1.649783e+00
6.232910e-01 8.043179e+00 1.647541e+00
6.234741e-01 8.036967e+00 1.645301e+00
6.236572e-01 8.030759e+00 1.643065e+00
6.238403e-01 8.024555e+00 1.640832e+00
6.240234e-01 8.018356e+00 1.638603e+00
6.242065e-01 8.012161e+00 1.636376e+00
6.243896e-01 8.005970e+00 1.634153e+00
6.245728e-01 7.999784e+00 1.631933e+00
6.247559e-01 7.993601e+00 1.629716e+00
6.249390e-01 7.987423e+00 1.627502e+00
6.251221e-01 7.981249e+00 1.625292e+00
6.253052e-01 7.975079e+00 1.623084e+00
6.254883e-01 7.968913e+00 1.620880e+00
6.256714e-01 7.962751e+00 1.618679e+00
6.258545e-01 7.956593e+00 1.616481e+00
6.260376e-01 7.950440e+00 1.614286e+00
6.262207e-01 7.944291e+00 1.612094e+00
6.265869e-01 7.932006e+00 1.607720e+00
6.269531e-01 7.919738e+00 1.603359e+00
6.273193e-01 7.907487e+00 1.599010e+00
6.276855e-01 7.895254e+00 1.594674e+00
6.280518e-01 7.883037e+00 1.590350e+00
6.284180e-01 7.870838e+00 1.586039e+00
6.287842e-01 7.858656e+00 1.581740e+00
6.291504e-01 7.846491e+00 1.577454e+00
6.295166e-01 7.834343e+00 1.573180e+00
6.298828e-01 7.822213e+00 1.568918e+00
6.313477e-01 7.773863e+00 1.551994e+00
6.328125e-01 7.725791e+00 1.535264e+00
6.342773e-01 7.677996e+00 1.518727e+00
6.357422e-01 7.630479e+00 1.502380e+00
6.372070e-01 7.583242e+00 1.486223e+00
6.386719e-01 7.536283e+00 1.470252e+00
6.401367e-01 7.489606e+00 1.454466e+00
6.416016e-01 7.443209e+00 1.438863e+00
6.430664e-01 7.397093e+00 1.423441e+00
6.445312e-01 7.351259e+00 1.408199e+00
6.503906e-01 7.170751e+00 1.348982e+00
6.562500e-01 6.994783e+00 1.292486e+00
6.621094e-01 6.823372e+00 1.238596e+00
6.679688e-01 6.656523e+00 1.187204e+00
6.738281e-01 6.494236e+00 1.138204e+00
6.796875e-01 6.336504e+00 1.091494e+00
6.855469e-01 6.183311e+00 1.046976e+00
6.914062e-01 6.034635e+00 1.004557e+00
6.972656e-01 5.890451e+00 9.641446e-01
7.031250e-01 5.750724e+00 9.256516e-01
7.089844e-01 5.615416e+00 8.889939e-01
7.148438e-01 5.484486e+00 8.540903e-01
7.207031e-01 5.357885e+00 8.208630e-01
7.265625e-01 5.235562e+00 7.892371e-01
7.324219e-01 5.117462e+00 7.591405e-01
7.382812e-01 5.003527e+00 7.305042e-01
7.441406e-01 4.893696e+00 7.032619e-01
7.500000e-01 4.787903e+00 6.773498e-01
7.558594e-01 4.686083e+00 6.527068e-01
7.617188e-01 4.588166e+00 6.292743e-01
7.675781e-01 4.494081e+00 6.069960e-01
7.734375e-01 4.403755e+00 5.858182e-01
7.792969e-01 4.317114e+00 5.656891e-01
7.851562e-01 4.234083e+00 5.465593e-01
7.910156e-01 4.154585e+00 5.283815e-01
7.968750e-01 4.078541e+00 5.111102e-01
8.027344e-01 4.005874e+00 4.947021e-01
8.085938e-01 3.936506e+00 4.791156e-01
8.144531e-01 3.870356e+00 4.643109e-01
8.203125e-01 3.807345e+00 4.502500e-01
8.320312e-01 3.690423e+00 4.242159e-01
8.437500e-01 3.585103e+00 4.007414e-01
8.554688e-01 3.490754e+00 3.795781e-01
8.671875e-01 3.406752e+00 3.604995e-01
8.789062e-01 3.332483e+00 3.432993e-01
8.906250e-01 3.267345e+00 3.277897e-01
9.023438e-01 3.210750e+00 3.137997e-01
9.140625e-01 3.162127e+00 3.011741e-01
9.257812e-01 3.120921e+00 2.897719e-01
9.375000e-01 3.086597e+00 2.794651e-01
9.492188e-01 3.058641e+00 2.701382e-01
9.609375e-01 3.036555e+00 2.616863e-01
9.726562e-01 3.019864e+00 2.540146e-01
9.843750e-01 3.008113e+00 2.470376e-01
9.960938e-01 3.000867e+00 2.406781e-01
1.007812e+00 2.997713e+00 2.348663e-01
1.019531e+00 2.998257e+00 2.295397e-01
1.031250e+00 3.002125e+00 2.246420e-01
1.042969e+00 3.008966e+00 2.201227e-01
1.054688e+00 3.018443e+00 2.159362e-01
1.066406e+00 3.030243e+00 2.120422e-01
1.078125e+00 3.044070e+00 2.084042e-01
1.089844e+00 3.059643e+00 2.049899e-01
1.101562e+00 3.076704e+00 2.017704e-01
1.113281e+00 3.095006e+00 1.987201e-01
1.125000e+00 3.114323e+00 1.958162e-01
1.136719e+00 3.134441e+00 1.930386e-01
1.148438e+00 3.155163e+00 1.903694e-01
1.160156e+00 3.176305e+00 1.877930e-01
1.171875e+00 3.197698e+00 1.852956e-01
1.177734e+00 3.208439e+00 1.840726e-01
1.183594e+00 3.219186e+00 1.828651e-01
1.189453e+00 3.229919e+00 1.816716e-01
1.195312e+00 3.240623e+00 1.804911e-01
1.201172e+00 3.251282e+00 1.793223e-01
1.207031e+00 3.261879e+00 1.781644e-01
1.212891e+00 3.272400e+00 1.770163e-01
1.218750e+00 3.282832e+00 1.758772e-01
1.224609e+00 3.293159e+00 1.747462e-01
1.230469e+00 3.303371e+00 1.736226e-01
1.233398e+00 3.308429e+00 1.730634e-01
1.236328e+00 3.313454e+00 1.725057e-01
1.239258e+00 3.318443e+00 1.719496e-01
1.242188e+00 3.323397e+00 1.713949e-01
1.245117e+00 3.328312e+00 1.708416e-01
1.248047e+00 3.333188e+00 1.702896e-01
1.250977e+00 3.338024e+00 1.697389e-01
1.253906e+00 3.342819e+00 1.691893e-01
1.256836e+00 3.347570e+00 1.686408e-01
1.259766e+00 3.352277e+00 1.680934e-01
1.262695e+00 3.356940e+00 1.675469e-01
1.265625e+00 3.361555e+00 1.670015e-01
1.268555e+00 3.366123e+00 1.664569e-01
1.271484e+00 3.370643e+00 1.659132e-01
1.274414e+00 3.375113e+00 1.653702e-01
1.277344e+00 3.379532e+00 1.648281e-01
1.280273e+00 3.383900e+00 1.642866e-01
1.283203e+00 3.388216e+00 1.637459e-01
1.286133e+00 3.392478e+00 1.632058e-01
1.289062e+00 3.396685e+00 1.626663e-01
1.300781e+00 3.412957e+00 1.605138e-01
1.312500e+00 3.428297e+00 1.583689e-01
1.324219e+00 3.442661e+00 1.562302e-01
1.335938e+00 3.456013e+00 1.540967e-01
1.347656e+00 3.468320e+00 1.519676e-01
1.359375e+00 3.479557e+00 1.498427e-01
1.371094e+00 3.489702e+00 1.477217e-01
1.382812e+00 3.498738e+00 1.456046e-01
1.394531e+00 3.506654e+00 1.434916e-01
1.406250e+00 3.513441e+00 1.413832e-01
1.429688e+00 3.523614e+00 1.371817e-01
1.453125e+00 3.529262e+00 1.330050e-01
1.476562e+00 3.530435e+00 1.288590e-01
1.500000e+00 3.527224e+00 1.247500e-01
1.523438e+00 3.519750e+00 1.206848e-01
1.546875e+00 3.508162e+00 1.166701e-01
1.570312e+00 3.492630e+00 1.127121e-01
1.593750e+00 3.473338e+00 1.088170e-01
1.617188e+00 3.450483e+00 1.049903e-01
1.640625e+00 3.424271e+00 1.012371e-01
1.664062e+00 3.394912e+00 9.756171e-02
1.687500e+00 3.362620e+00 9.396809e-02
1.710938e+00 3.327608e+00 9.045947e-02
1.734375e+00 3.290088e+00 8.703855e-02
1.757812e+00 3.250268e+00 8.370748e-02
1.781250e+00 3.208354e+00 8.046790e-02
1.804688e+00 3.164544e+00 7.732096e-02
1.828125e+00 3.119031e+00 7.426737e-02
1.851562e+00 3.072003e+00 7.130747e-02
1.875000e+00 3.023640e+00 6.844120e-02
1.921875e+00 2.923573e+00 6.298742e-02
1.968750e+00 2.820099e+00 5.789930e-02
2.015625e+00 2.714353e+00 5.316637e-02
2.062500e+00 2.607340e+00 4.877529e-02
2.109375e+00 2.499937e+00 4.471072e-02
2.156250e+00 2.392905e+00 4.095599e-02
2.203125e+00 2.286892e+00 3.749363e-02
2.250000e+00 2.182446e+00 3.430588e-02
2.296875e+00 2.080021e+00 3.137496e-02
2.343750e+00 1.979990e+00 2.868340e-02
2.355469e+00 1.955393e+00 2.804591e-02
2.367188e+00 1.930969e+00 2.742206e-02
2.378906e+00 1.906721e+00 2.681159e-02
2.390625e+00 1.882653e+00 2.621425e-02
2.402344e+00 1.858768e+00 2.562979e-02
2.414062e+00 1.835070e+00 2.505796e-02
2.425781e+00 1.811560e+00 2.449851e-02
2.437500e+00 1.788243e+00 2.395120e-02
2.449219e+00 1.765119e+00 2.341580e-02
2.460938e+00 1.742192e+00 2.289207e-02
2.463867e+00 1.736492e+00 2.276294e-02
2.466797e+00 1.730803e+00 2.263451e-02
2.469727e+00 1.725128e+00 2.250679e-02
2.472656e+00 1.719464e+00 2.237978e-02
2.475586e+00 1.713813e+00 2.225346e-02
2.478516e+00 1.708175e+00 2.212785e-02
2.481445e+00 1.702549e+00 2.200293e-02
2.484375e+00 1.696936e+00 2.187869e-02
2.487305e+00 1.691336e+00 2.175515e-02
2.490234e+00 1.685748e+00 2.163228e-02
2.493164e+00 1.680173e+00 2.151010e-02
2.496094e+00 1.674611e+00 2.138859e-02
2.499023e+00 1.669061e+00 2.126776e-02
2.501953e+00 1.663524e+00 2.114759e-02
2.504883e+00 1.657999e+00 2.102808e-02
2.507812e+00 1.652488e+00 2.090924e-02
2.510742e+00 1.646989e+00 2.079106e-02
2.513672e+00 1.641503e+00 2.067354e-02
2.516602e+00 1.636030e+00 2.055666e-02
2.519531e+00 1.630570e+00 2.044044e-02
2.525391e+00 1.619689e+00 2.020992e-02
2.531250e+00 1.608859e+00 1.998196e-02
2.537109e+00 1.598082e+00 1.975653e-02
2.542969e+00 1.587356e+00 1.953361e-02
2.548828e+00 1.576683e+00 1.931316e-02
2.554688e+00 1.566061e+00 1.909516e-02
2.560547e+00 1.555492e+00 1.887959e-02
2.566406e+00 1.544976e+00 1.866642e-02
2.572266e+00 1.534512e+00 1.845562e-02
2.578125e+00 1.524100e+00 1.824717e-02
2.601562e+00 1.482980e+00 1.743640e-02
2.625000e+00 1.442704e+00 1.666130e-02
2.648438e+00 1.403273e+00 1.592036e-02
