# 
# Output from RAtom program.
# 
# Total radial electron density.
# The first column contains radius $r$ in bohr units.
# The second column holds $\rho(r)$.
# The third column holds $\tilde{\rho}(r) = \rho(r) / (\pi * r * r)$
# 
# Use this file with gnuplot to create the plot.
# 
# R     Rho     RhoTilde
#
0.000000e+00 0.000000e+00 1.240473e+05
9.155273e-05 1.293262e-02 1.227818e+05
1.831055e-04 5.120277e-02 1.215293e+05
2.746582e-04 1.140310e-01 1.202896e+05
3.662109e-04 2.006538e-01 1.190625e+05
4.577637e-04 3.103235e-01 1.178480e+05
5.493164e-04 4.423077e-01 1.166459e+05
6.408691e-04 5.958891e-01 1.154561e+05
7.324219e-04 7.703656e-01 1.142785e+05
8.239746e-04 9.650496e-01 1.131129e+05
9.155273e-04 1.179268e+00 1.119592e+05
1.007080e-03 1.412361e+00 1.108174e+05
1.098633e-03 1.663685e+00 1.096872e+05
1.190186e-03 1.932607e+00 1.085686e+05
1.281738e-03 2.218510e+00 1.074615e+05
1.373291e-03 2.520789e+00 1.063657e+05
1.464844e-03 2.838852e+00 1.052811e+05
1.556396e-03 3.172121e+00 1.042076e+05
1.647949e-03 3.520028e+00 1.031451e+05
1.739502e-03 3.882021e+00 1.020935e+05
1.831055e-03 4.257556e+00 1.010527e+05
2.014160e-03 5.047147e+00 9.900294e+04
2.197266e-03 5.884700e+00 9.699499e+04
2.380371e-03 6.766294e+00 9.502802e+04
2.563477e-03 7.688185e+00 9.310120e+04
2.746582e-03 8.646794e+00 9.121371e+04
2.929688e-03 9.638707e+00 8.936477e+04
3.112793e-03 1.066067e+01 8.755360e+04
3.295898e-03 1.170956e+01 8.577944e+04
3.479004e-03 1.278244e+01 8.404155e+04
3.662109e-03 1.387647e+01 8.233919e+04
4.028320e-03 1.611740e+01 7.903823e+04
4.394531e-03 1.841242e+01 7.587100e+04
4.760742e-03 2.074352e+01 7.283216e+04
5.126953e-03 2.309451e+01 6.991658e+04
5.493164e-03 2.545087e+01 6.711934e+04
5.859375e-03 2.779963e+01 6.443570e+04
6.225586e-03 3.012923e+01 6.186111e+04
6.591797e-03 3.242946e+01 5.939122e+04
6.958008e-03 3.469132e+01 5.702182e+04
7.324219e-03 3.690693e+01 5.474890e+04
7.507324e-03 3.799521e+01 5.364740e+04
7.690430e-03 3.906945e+01 5.256858e+04
7.873535e-03 4.012893e+01 5.151198e+04
8.056641e-03 4.117301e+01 5.047715e+04
8.239746e-03 4.220109e+01 4.946364e+04
8.422852e-03 4.321261e+01 4.847104e+04
8.605957e-03 4.420707e+01 4.749890e+04
8.789062e-03 4.518404e+01 4.654682e+04
8.972168e-03 4.614308e+01 4.561439e+04
9.155273e-03 4.708384e+01 4.470122e+04
9.338379e-03 4.800598e+01 4.380690e+04
9.521484e-03 4.890922e+01 4.293106e+04
9.704590e-03 4.979331e+01 4.207332e+04
9.887695e-03 5.065802e+01 4.123331e+04
1.007080e-02 5.150317e+01 4.041068e+04
1.025391e-02 5.232862e+01 3.960506e+04
1.043701e-02 5.313423e+01 3.881612e+04
1.062012e-02 5.391991e+01 3.804352e+04
1.080322e-02 5.468560e+01 3.728691e+04
1.098633e-02 5.543125e+01 3.654599e+04
1.135254e-02 5.686242e+01 3.510989e+04
1.171875e-02 5.821357e+01 3.373275e+04
1.208496e-02 5.948519e+01 3.241220e+04
1.245117e-02 6.067806e+01 3.114593e+04
1.281738e-02 6.179324e+01 2.993177e+04
1.318359e-02 6.283204e+01 2.876760e+04
1.354980e-02 6.379597e+01 2.765141e+04
1.391602e-02 6.468671e+01 2.658125e+04
1.428223e-02 6.550613e+01 2.555526e+04
1.464844e-02 6.625621e+01 2.457164e+04
1.501465e-02 6.693907e+01 2.362868e+04
1.538086e-02 6.755691e+01 2.272473e+04
1.574707e-02 6.811203e+01 2.185820e+04
1.611328e-02 6.860679e+01 2.102758e+04
1.647949e-02 6.904358e+01 2.023139e+04
1.684570e-02 6.942486e+01 1.946825e+04
1.721191e-02 6.975311e+01 1.873680e+04
1.757812e-02 7.003079e+01 1.803574e+04
1.794434e-02 7.026042e+01 1.736385e+04
1.831055e-02 7.044446e+01 1.671993e+04
1.867676e-02 7.058541e+01 1.610283e+04
1.904297e-02 7.068570e+01 1.551145e+04
1.940918e-02 7.074777e+01 1.494475e+04
1.977539e-02 7.077401e+01 1.440170e+04
2.014160e-02 7.076678e+01 1.388135e+04
2.050781e-02 7.072838e+01 1.338274e+04
2.087402e-02 7.066109e+01 1.290500e+04
2.124023e-02 7.056712e+01 1.244726e+04
2.160645e-02 7.044863e+01 1.200870e+04
2.197266e-02 7.030772e+01 1.158852e+04
2.270508e-02 6.996679e+01 1.080031e+04
2.343750e-02 6.955996e+01 1.007690e+04
2.416992e-02 6.910184e+01 9.413026e+03
2.490234e-02 6.860602e+01 8.803836e+03
2.563477e-02 6.808504e+01 8.244857e+03
2.636719e-02 6.755037e+01 7.731972e+03
2.709961e-02 6.701247e+01 7.261389e+03
2.783203e-02 6.648078e+01 6.829618e+03
2.856445e-02 6.596377e+01 6.433448e+03
2.929688e-02 6.546895e+01 6.069919e+03
2.966309e-02 6.523196e+01 5.899537e+03
3.002930e-02 6.500294e+01 5.736312e+03
3.039551e-02 6.478256e+01 5.579939e+03
3.076172e-02 6.457149e+01 5.430124e+03
3.112793e-02 6.437029e+01 5.286584e+03
3.149414e-02 6.417953e+01 5.149050e+03
3.186035e-02 6.399969e+01 5.017263e+03
3.222656e-02 6.383123e+01 4.890974e+03
3.259277e-02 6.367455e+01 4.769945e+03
3.295898e-02 6.353003e+01 4.653948e+03
3.332520e-02 6.339799e+01 4.542764e+03
3.369141e-02 6.327870e+01 4.436183e+03
3.405762e-02 6.317243e+01 4.334003e+03
3.442383e-02 6.307938e+01 4.236032e+03
3.479004e-02 6.299973e+01 4.142085e+03
3.515625e-02 6.293363e+01 4.051985e+03
3.552246e-02 6.288118e+01 3.965562e+03
3.588867e-02 6.284246e+01 3.882653e+03
3.625488e-02 6.281754e+01 3.803103e+03
3.662109e-02 6.280643e+01 3.726761e+03
3.698730e-02 6.280912e+01 3.653486e+03
3.735352e-02 6.282560e+01 3.583140e+03
3.771973e-02 6.285580e+01 3.515592e+03
3.808594e-02 6.289966e+01 3.450715e+03
3.845215e-02 6.295707e+01 3.388390e+03
3.881836e-02 6.302792e+01 3.328501e+03
3.918457e-02 6.311207e+01 3.270939e+03
3.955078e-02 6.320937e+01 3.215596e+03
3.991699e-02 6.331964e+01 3.162372e+03
4.028320e-02 6.344270e+01 3.111171e+03
4.064941e-02 6.357834e+01 3.061898e+03
4.101562e-02 6.372635e+01 3.014467e+03
4.138184e-02 6.388649e+01 2.968791e+03
4.174805e-02 6.405852e+01 2.924790e+03
4.211426e-02 6.424218e+01 2.882386e+03
4.248047e-02 6.443721e+01 2.841504e+03
4.284668e-02 6.464334e+01 2.802074e+03
4.321289e-02 6.486028e+01 2.764027e+03
4.357910e-02 6.508774e+01 2.727299e+03
4.394531e-02 6.532542e+01 2.691828e+03
4.467773e-02 6.583022e+01 2.624419e+03
4.541016e-02 6.637216e+01 2.561357e+03
4.614258e-02 6.694866e+01 2.502236e+03
4.687500e-02 6.755709e+01 2.446688e+03
4.760742e-02 6.819476e+01 2.394373e+03
4.833984e-02 6.885900e+01 2.344986e+03
4.907227e-02 6.954709e+01 2.298248e+03
4.980469e-02 7.025635e+01 2.253903e+03
5.053711e-02 7.098413e+01 2.211722e+03
5.126953e-02 7.172777e+01 2.171495e+03
5.200195e-02 7.248470e+01 2.133031e+03
5.273438e-02 7.325237e+01 2.096159e+03
5.346680e-02 7.402831e+01 2.060723e+03
5.419922e-02 7.481010e+01 2.026583e+03
5.493164e-02 7.559540e+01 1.993611e+03
5.566406e-02 7.638195e+01 1.961693e+03
5.639648e-02 7.716757e+01 1.930727e+03
5.712891e-02 7.795016e+01 1.900620e+03
5.786133e-02 7.872771e+01 1.871289e+03
5.859375e-02 7.949831e+01 1.842661e+03
5.932617e-02 8.026014e+01 1.814669e+03
6.005859e-02 8.101146e+01 1.787254e+03
6.079102e-02 8.175065e+01 1.760364e+03
6.152344e-02 8.247615e+01 1.733953e+03
6.225586e-02 8.318654e+01 1.707980e+03
6.298828e-02 8.388045e+01 1.682408e+03
6.372070e-02 8.455664e+01 1.657207e+03
6.445312e-02 8.521394e+01 1.632348e+03
6.518555e-02 8.585128e+01 1.607808e+03
6.591797e-02 8.646769e+01 1.583567e+03
6.665039e-02 8.706228e+01 1.559606e+03
6.738281e-02 8.763423e+01 1.535910e+03
6.811523e-02 8.818284e+01 1.512466e+03
6.884766e-02 8.870747e+01 1.489265e+03
6.958008e-02 8.920755e+01 1.466297e+03
7.031250e-02 8.968262e+01 1.443555e+03
7.104492e-02 9.013227e+01 1.421034e+03
7.177734e-02 9.055617e+01 1.398728e+03
7.250977e-02 9.095406e+01 1.376636e+03
7.324219e-02 9.132574e+01 1.354755e+03
7.360840e-02 9.150172e+01 1.343893e+03
7.397461e-02 9.167110e+01 1.333083e+03
7.434082e-02 9.183388e+01 1.322325e+03
7.470703e-02 9.199006e+01 1.311620e+03
7.507324e-02 9.213963e+01 1.300967e+03
7.543945e-02 9.228261e+01 1.290366e+03
7.580566e-02 9.241901e+01 1.279818e+03
7.617188e-02 9.254882e+01 1.269322e+03
7.653809e-02 9.267207e+01 1.258878e+03
7.690430e-02 9.278877e+01 1.248488e+03
7.708740e-02 9.284468e+01 1.243313e+03
7.727051e-02 9.289896e+01 1.238150e+03
7.745361e-02 9.295161e+01 1.233002e+03
7.763672e-02 9.300264e+01 1.227866e+03
7.781982e-02 9.305205e+01 1.222744e+03
7.800293e-02 9.309984e+01 1.217635e+03
7.818604e-02 9.314603e+01 1.212540e+03
7.836914e-02 9.319061e+01 1.207458e+03
7.855225e-02 9.323358e+01 1.202390e+03
7.873535e-02 9.327496e+01 1.197335e+03
7.891846e-02 9.331474e+01 1.192294e+03
7.910156e-02 9.335293e+01 1.187266e+03
7.928467e-02 9.338954e+01 1.182252e+03
7.946777e-02 9.342457e+01 1.177251e+03
7.965088e-02 9.345803e+01 1.172264e+03
7.983398e-02 9.348991e+01 1.167291e+03
8.001709e-02 9.352023e+01 1.162332e+03
8.020020e-02 9.354899e+01 1.157386e+03
8.038330e-02 9.357620e+01 1.152455e+03
8.056641e-02 9.360187e+01 1.147537e+03
8.129883e-02 9.368918e+01 1.128005e+03
8.203125e-02 9.375225e+01 1.108698e+03
8.276367e-02 9.379153e+01 1.089618e+03
8.349609e-02 9.380747e+01 1.070768e+03
8.422852e-02 9.380058e+01 1.052149e+03
8.496094e-02 9.377138e+01 1.033765e+03
8.569336e-02 9.372043e+01 1.015617e+03
8.642578e-02 9.364828e+01 9.977077e+02
8.715820e-02 9.355553e+01 9.800384e+02
8.789062e-02 9.344279e+01 9.626110e+02
8.862305e-02 9.331068e+01 9.454273e+02
8.935547e-02 9.315984e+01 9.284886e+02
9.008789e-02 9.299091e+01 9.117963e+02
9.082031e-02 9.280456e+01 8.953513e+02
9.155273e-02 9.260146e+01 8.791547e+02
9.228516e-02 9.238228e+01 8.632073e+02
9.301758e-02 9.214770e+01 8.475095e+02
9.375000e-02 9.189841e+01 8.320618e+02
9.448242e-02 9.163510e+01 8.168643e+02
9.521484e-02 9.135845e+01 8.019173e+02
9.594727e-02 9.106917e+01 7.872204e+02
9.667969e-02 9.076794e+01 7.727733e+02
9.741211e-02 9.045544e+01 7.585757e+02
9.814453e-02 9.013237e+01 7.446269e+02
9.887695e-02 8.979940e+01 7.309260e+02
9.960938e-02 8.945720e+01 7.174721e+02
1.003418e-01 8.910645e+01 7.042641e+02
1.010742e-01 8.874781e+01 6.913007e+02
1.018066e-01 8.838193e+01 6.785805e+02
1.025391e-01 8.800945e+01 6.661021e+02
1.040039e-01 8.724726e+01 6.418635e+02
1.054688e-01 8.646621e+01 6.185701e+02
1.069336e-01 8.567107e+01 5.962055e+02
1.083984e-01 8.486644e+01 5.747515e+02
1.098633e-01 8.405673e+01 5.541885e+02
1.113281e-01 8.324610e+01 5.344957e+02
1.127930e-01 8.243850e+01 5.156514e+02
1.142578e-01 8.163765e+01 4.976326e+02
1.157227e-01 8.084704e+01 4.804160e+02
1.171875e-01 8.006991e+01 4.639775e+02
1.186523e-01 7.930926e+01 4.482924e+02
1.201172e-01 7.856786e+01 4.333360e+02
1.215820e-01 7.784822e+01 4.190830e+02
1.230469e-01 7.715264e+01 4.055083e+02
1.245117e-01 7.648317e+01 3.925867e+02
1.259766e-01 7.584165e+01 3.802931e+02
1.274414e-01 7.522970e+01 3.686025e+02
1.289062e-01 7.464869e+01 3.574904e+02
1.303711e-01 7.409983e+01 3.469323e+02
1.318359e-01 7.358409e+01 3.369042e+02
1.325684e-01 7.333890e+01 3.320816e+02
1.333008e-01 7.310228e+01 3.273827e+02
1.340332e-01 7.287429e+01 3.228046e+02
1.347656e-01 7.265500e+01 3.183445e+02
1.354980e-01 7.244445e+01 3.139997e+02
1.362305e-01 7.224268e+01 3.097673e+02
1.369629e-01 7.204973e+01 3.056446e+02
1.376953e-01 7.186560e+01 3.016289e+02
1.384277e-01 7.169031e+01 2.977175e+02
1.391602e-01 7.152386e+01 2.939079e+02
1.398926e-01 7.136623e+01 2.901974e+02
1.406250e-01 7.121741e+01 2.865835e+02
1.413574e-01 7.107737e+01 2.830637e+02
1.420898e-01 7.094607e+01 2.796356e+02
1.428223e-01 7.082347e+01 2.762966e+02
1.435547e-01 7.070952e+01 2.730444e+02
1.442871e-01 7.060416e+01 2.698767e+02
1.450195e-01 7.050733e+01 2.667911e+02
1.457520e-01 7.041894e+01 2.637855e+02
1.464844e-01 7.033893e+01 2.608575e+02
1.472168e-01 7.026720e+01 2.580050e+02
1.479492e-01 7.020366e+01 2.552258e+02
1.486816e-01 7.014822e+01 2.525178e+02
1.494141e-01 7.010076e+01 2.498791e+02
1.501465e-01 7.006119e+01 2.473075e+02
1.508789e-01 7.002938e+01 2.448011e+02
1.516113e-01 7.000522e+01 2.423579e+02
1.523438e-01 6.998858e+01 2.399761e+02
1.530762e-01 6.997933e+01 2.376538e+02
1.538086e-01 6.997735e+01 2.353891e+02
1.539917e-01 6.997797e+01 2.348318e+02
1.541748e-01 6.997904e+01 2.342779e+02
1.543579e-01 6.998054e+01 2.337274e+02
1.545410e-01 6.998249e+01 2.331804e+02
1.547241e-01 6.998487e+01 2.326367e+02
1.549072e-01 6.998769e+01 2.320964e+02
1.550903e-01 6.999094e+01 2.315594e+02
1.552734e-01 6.999462e+01 2.310258e+02
1.554565e-01 6.999872e+01 2.304954e+02
1.556396e-01 7.000325e+01 2.299682e+02
1.557312e-01 7.000568e+01 2.297059e+02
1.558228e-01 7.000821e+01 2.294443e+02
1.559143e-01 7.001084e+01 2.291836e+02
1.560059e-01 7.001358e+01 2.289236e+02
1.560974e-01 7.001643e+01 2.286645e+02
1.561890e-01 7.001937e+01 2.284061e+02
1.562805e-01 7.002243e+01 2.281485e+02
1.563721e-01 7.002559e+01 2.278917e+02
1.564636e-01 7.002885e+01 2.276357e+02
1.565552e-01 7.003221e+01 2.273805e+02
1.566467e-01 7.003568e+01 2.271260e+02
1.567383e-01 7.003925e+01 2.268723e+02
1.568298e-01 7.004292e+01 2.266194e+02
1.569214e-01 7.004670e+01 2.263672e+02
1.570129e-01 7.005058e+01 2.261158e+02
1.571045e-01 7.005455e+01 2.258652e+02
1.571960e-01 7.005863e+01 2.256153e+02
1.572876e-01 7.006281e+01 2.253662e+02
1.573792e-01 7.006709e+01 2.251178e+02
1.574707e-01 7.007148e+01 2.248702e+02
1.578369e-01 7.008999e+01 2.238871e+02
1.582031e-01 7.011009e+01 2.229157e+02
1.585693e-01 7.013175e+01 2.219558e+02
1.589355e-01 7.015495e+01 2.210072e+02
1.593018e-01 7.017968e+01 2.200698e+02
1.596680e-01 7.020590e+01 2.191433e+02
1.600342e-01 7.023360e+01 2.182276e+02
1.604004e-01 7.026277e+01 2.173224e+02
1.607666e-01 7.029337e+01 2.164277e+02
1.611328e-01 7.032540e+01 2.155432e+02
1.625977e-01 7.046730e+01 2.121042e+02
1.640625e-01 7.063027e+01 2.088153e+02
1.655273e-01 7.081297e+01 2.056664e+02
1.669922e-01 7.101403e+01 2.026479e+02
1.684570e-01 7.123209e+01 1.997504e+02
1.699219e-01 7.146577e+01 1.969653e+02
1.713867e-01 7.171370e+01 1.942844e+02
1.728516e-01 7.197449e+01 1.917000e+02
1.743164e-01 7.224678e+01 1.892048e+02
1.757812e-01 7.252922e+01 1.867919e+02
1.772461e-01 7.282047e+01 1.844549e+02
1.787109e-01 7.311921e+01 1.821878e+02
1.801758e-01 7.342413e+01 1.799849e+02
1.816406e-01 7.373396e+01 1.778409e+02
1.831055e-01 7.404744e+01 1.757509e+02
1.845703e-01 7.436335e+01 1.737102e+02
1.860352e-01 7.468051e+01 1.717147e+02
1.875000e-01 7.499774e+01 1.697602e+02
1.889648e-01 7.531392e+01 1.678431e+02
1.904297e-01 7.562797e+01 1.659599e+02
1.918945e-01 7.593882e+01 1.641076e+02
1.933594e-01 7.624546e+01 1.622832e+02
1.948242e-01 7.654691e+01 1.604841e+02
1.962891e-01 7.684222e+01 1.587076e+02
1.977539e-01 7.713051e+01 1.569518e+02
1.992188e-01 7.741092e+01 1.552144e+02
2.006836e-01 7.768261e+01 1.534936e+02
2.021484e-01 7.794483e+01 1.517877e+02
2.036133e-01 7.819682e+01 1.500953e+02
2.050781e-01 7.843790e+01 1.484149e+02
2.065430e-01 7.866742e+01 1.467453e+02
2.080078e-01 7.888475e+01 1.450855e+02
2.094727e-01 7.908934e+01 1.434344e+02
2.109375e-01 7.928064e+01 1.417913e+02
2.124023e-01 7.945816e+01 1.401555e+02
2.138672e-01 7.962145e+01 1.385262e+02
2.153320e-01 7.977010e+01 1.369030e+02
2.167969e-01 7.990372e+01 1.352855e+02
2.182617e-01 8.002198e+01 1.336732e+02
2.197266e-01 8.012458e+01 1.320659e+02
2.211914e-01 8.021124e+01 1.304635e+02
2.226562e-01 8.028174e+01 1.288656e+02
2.241211e-01 8.033587e+01 1.272724e+02
2.255859e-01 8.037346e+01 1.256836e+02
2.270508e-01 8.039440e+01 1.240995e+02
2.285156e-01 8.039856e+01 1.225199e+02
2.299805e-01 8.038589e+01 1.209450e+02
2.314453e-01 8.035633e+01 1.193750e+02
2.329102e-01 8.030988e+01 1.178100e+02
2.343750e-01 8.024654e+01 1.162502e+02
2.358398e-01 8.016635e+01 1.146959e+02
2.373047e-01 8.006938e+01 1.131472e+02
2.387695e-01 7.995571e+01 1.116045e+02
2.402344e-01 7.982546e+01 1.100680e+02
2.416992e-01 7.967875e+01 1.085381e+02
2.431641e-01 7.951574e+01 1.070150e+02
2.446289e-01 7.933661e+01 1.054990e+02
2.460938e-01 7.914155e+01 1.039905e+02
2.475586e-01 7.893076e+01 1.024897e+02
2.490234e-01 7.870449e+01 1.009972e+02
2.504883e-01 7.846297e+01 9.951306e+01
2.519531e-01 7.820647e+01 9.803774e+01
2.534180e-01 7.793525e+01 9.657156e+01
2.548828e-01 7.764961e+01 9.511485e+01
2.563477e-01 7.734984e+01 9.366792e+01
2.578125e-01 7.703627e+01 9.223111e+01
2.592773e-01 7.670920e+01 9.080473e+01
2.607422e-01 7.636898e+01 8.938909e+01
2.622070e-01 7.601594e+01 8.798449e+01
2.636719e-01 7.565044e+01 8.659124e+01
2.651367e-01 7.527283e+01 8.520962e+01
2.666016e-01 7.488348e+01 8.383990e+01
2.680664e-01 7.448275e+01 8.248236e+01
2.695312e-01 7.407104e+01 8.113725e+01
2.709961e-01 7.364870e+01 7.980483e+01
2.724609e-01 7.321614e+01 7.848533e+01
2.739258e-01 7.277374e+01 7.717898e+01
2.753906e-01 7.232189e+01 7.588599e+01
2.768555e-01 7.186098e+01 7.460657e+01
2.783203e-01 7.139141e+01 7.334091e+01
2.797852e-01 7.091357e+01 7.208919e+01
2.812500e-01 7.042787e+01 7.085159e+01
2.827148e-01 6.993469e+01 6.962826e+01
2.841797e-01 6.943443e+01 6.841936e+01
2.856445e-01 6.892750e+01 6.722500e+01
2.871094e-01 6.841427e+01 6.604532e+01
2.885742e-01 6.789514e+01 6.488044e+01
2.900391e-01 6.737051e+01 6.373045e+01
2.915039e-01 6.684075e+01 6.259544e+01
2.929688e-01 6.630626e+01 6.147550e+01
2.944336e-01 6.576740e+01 6.037069e+01
2.958984e-01 6.522457e+01 5.928106e+01
2.973633e-01 6.467812e+01 5.820668e+01
2.988281e-01 6.412843e+01 5.714758e+01
3.002930e-01 6.357586e+01 5.610377e+01
3.017578e-01 6.302077e+01 5.507529e+01
3.032227e-01 6.246352e+01 5.406215e+01
3.046875e-01 6.190445e+01 5.306433e+01
3.061523e-01 6.134390e+01 5.208184e+01
3.076172e-01 6.078221e+01 5.111465e+01
3.079834e-01 6.064164e+01 5.087524e+01
3.083496e-01 6.050104e+01 5.063679e+01
3.087158e-01 6.036039e+01 5.039929e+01
3.090820e-01 6.021971e+01 5.016274e+01
3.094482e-01 6.007899e+01 4.992715e+01
3.098145e-01 5.993826e+01 4.969250e+01
3.101807e-01 5.979750e+01 4.945881e+01
3.105469e-01 5.965672e+01 4.922608e+01
3.109131e-01 5.951594e+01 4.899429e+01
3.112793e-01 5.937515e+01 4.876345e+01
3.113708e-01 5.933995e+01 4.870589e+01
3.114624e-01 5.930476e+01 4.864838e+01
3.115540e-01 5.926956e+01 4.859094e+01
3.116455e-01 5.923436e+01 4.853356e+01
3.117371e-01 5.919917e+01 4.847623e+01
3.118286e-01 5.916397e+01 4.841897e+01
3.119202e-01 5.912877e+01 4.836176e+01
3.120117e-01 5.909358e+01 4.830461e+01
3.121033e-01 5.905838e+01 4.824753e+01
3.121948e-01 5.902319e+01 4.819050e+01
3.122864e-01 5.898799e+01 4.813353e+01
3.123779e-01 5.895280e+01 4.807662e+01
3.124695e-01 5.891761e+01 4.801977e+01
3.125610e-01 5.888242e+01 4.796297e+01
3.126526e-01 5.884723e+01 4.790624e+01
3.127441e-01 5.881204e+01 4.784957e+01
3.128357e-01 5.877686e+01 4.779296e+01
3.129272e-01 5.874167e+01 4.773640e+01
3.130188e-01 5.870649e+01 4.767990e+01
3.131104e-01 5.867130e+01 4.762347e+01
3.132935e-01 5.860094e+01 4.751077e+01
3.134766e-01 5.853059e+01 4.739831e+01
3.136597e-01 5.846024e+01 4.728608e+01
3.138428e-01 5.838990e+01 4.717409e+01
3.140259e-01 5.831956e+01 4.706234e+01
3.142090e-01 5.824924e+01 4.695082e+01
3.143921e-01 5.817893e+01 4.683954e+01
3.145752e-01 5.810862e+01 4.672849e+01
3.147583e-01 5.803833e+01 4.661768e+01
3.149414e-01 5.796804e+01 4.650710e+01
3.156738e-01 5.768703e+01 4.606713e+01
3.164062e-01 5.740625e+01 4.563091e+01
3.171387e-01 5.712572e+01 4.519843e+01
3.178711e-01 5.684548e+01 4.476968e+01
3.186035e-01 5.656558e+01 4.434465e+01
3.193359e-01 5.628605e+01 4.392333e+01
3.200684e-01 5.600691e+01 4.350571e+01
3.208008e-01 5.572821e+01 4.309178e+01
3.215332e-01 5.544998e+01 4.268152e+01
3.222656e-01 5.517225e+01 4.227493e+01
3.237305e-01 5.461843e+01 4.147269e+01
3.251953e-01 5.406700e+01 4.068495e+01
3.266602e-01 5.351821e+01 3.991163e+01
3.281250e-01 5.297232e+01 3.915259e+01
3.295898e-01 5.242954e+01 3.840772e+01
3.310547e-01 5.189012e+01 3.767691e+01
3.325195e-01 5.135426e+01 3.696003e+01
3.339844e-01 5.082219e+01 3.625695e+01
3.354492e-01 5.029412e+01 3.556753e+01
3.369141e-01 4.977022e+01 3.489165e+01
3.383789e-01 4.925071e+01 3.422915e+01
3.398438e-01 4.873577e+01 3.357990e+01
3.413086e-01 4.822556e+01 3.294375e+01
3.427734e-01 4.772027e+01 3.232055e+01
3.442383e-01 4.722005e+01 3.171015e+01
3.457031e-01 4.672506e+01 3.111239e+01
3.471680e-01 4.623545e+01 3.052713e+01
3.486328e-01 4.575137e+01 2.995420e+01
3.500977e-01 4.527294e+01 2.939344e+01
3.515625e-01 4.480029e+01 2.884469e+01
3.544922e-01 4.387285e+01 2.778258e+01
3.574219e-01 4.296992e+01 2.676655e+01
3.603516e-01 4.209232e+01 2.579528e+01
