# 
# Output from RAtom program.
# 
# Total radial electron density.
# The first column contains radius $r$ in bohr units.
# The second column holds $\rho(r)$.
# The third column holds $\tilde{\rho}(r) = \rho(r) / (\pi * r * r)$
# 
# Use this file with gnuplot to create the plot.
# 
# R     Rho     RhoTilde
#
0.000000e+00 0.000000e+00 3.794206e+04
3.662109e-04 6.218794e-02 3.690062e+04
7.324219e-04 2.419247e-01 3.588787e+04
1.098633e-03 5.293924e-01 3.490300e+04
1.464844e-03 9.153168e-01 3.394525e+04
1.831055e-03 1.390942e+00 3.301388e+04
2.197266e-03 1.948008e+00 3.210818e+04
2.563477e-03 2.578726e+00 3.122746e+04
2.929688e-03 3.275758e+00 3.037102e+04
3.295898e-03 4.032195e+00 2.953820e+04
3.662109e-03 4.841540e+00 2.872837e+04
4.028320e-03 5.697683e+00 2.794090e+04
4.394531e-03 6.594887e+00 2.717518e+04
4.760742e-03 7.527769e+00 2.643060e+04
5.126953e-03 8.491283e+00 2.570661e+04
5.493164e-03 9.480705e+00 2.500263e+04
5.859375e-03 1.049161e+01 2.431811e+04
6.225586e-03 1.151988e+01 2.365253e+04
6.591797e-03 1.256165e+01 2.300537e+04
6.958008e-03 1.361333e+01 2.237612e+04
7.324219e-03 1.467159e+01 2.176430e+04
7.690430e-03 1.573331e+01 2.116942e+04
8.056641e-03 1.679561e+01 2.059103e+04
8.422852e-03 1.785583e+01 2.002866e+04
8.789062e-03 1.891150e+01 1.948189e+04
9.155273e-03 1.996035e+01 1.895028e+04
9.521484e-03 2.100029e+01 1.843343e+04
9.887695e-03 2.202939e+01 1.793092e+04
1.025391e-02 2.304590e+01 1.744236e+04
1.062012e-02 2.404821e+01 1.696736e+04
1.098633e-02 2.503488e+01 1.650557e+04
1.135254e-02 2.600457e+01 1.605661e+04
1.171875e-02 2.695609e+01 1.562013e+04
1.208496e-02 2.788839e+01 1.519578e+04
1.245117e-02 2.880051e+01 1.478325e+04
1.281738e-02 2.969161e+01 1.438219e+04
1.318359e-02 3.056094e+01 1.399230e+04
1.354980e-02 3.140787e+01 1.361327e+04
1.391602e-02 3.223185e+01 1.324480e+04
1.428223e-02 3.303240e+01 1.288660e+04
1.464844e-02 3.380914e+01 1.253839e+04
1.501465e-02 3.456176e+01 1.219988e+04
1.538086e-02 3.529002e+01 1.187082e+04
1.574707e-02 3.599375e+01 1.155095e+04
1.611328e-02 3.667283e+01 1.124001e+04
1.647949e-02 3.732721e+01 1.093775e+04
1.684570e-02 3.795688e+01 1.064394e+04
1.721191e-02 3.856189e+01 1.035834e+04
1.757812e-02 3.914235e+01 1.008073e+04
1.794434e-02 3.969837e+01 9.810882e+03
1.831055e-02 4.023015e+01 9.548588e+03
1.849365e-02 4.048701e+01 9.420208e+03
1.867676e-02 4.073790e+01 9.293638e+03
1.885986e-02 4.098283e+01 9.168853e+03
1.904297e-02 4.122185e+01 9.045829e+03
1.922607e-02 4.145500e+01 8.924540e+03
1.940918e-02 4.168231e+01 8.804963e+03
1.959229e-02 4.190381e+01 8.687073e+03
1.977539e-02 4.211956e+01 8.570848e+03
1.995850e-02 4.232959e+01 8.456264e+03
2.014160e-02 4.253395e+01 8.343299e+03
2.032471e-02 4.273268e+01 8.231930e+03
2.050781e-02 4.292583e+01 8.122134e+03
2.069092e-02 4.311345e+01 8.013890e+03
2.087402e-02 4.329558e+01 7.907175e+03
2.105713e-02 4.347228e+01 7.801970e+03
2.124023e-02 4.364361e+01 7.698253e+03
2.142334e-02 4.380960e+01 7.596002e+03
2.160645e-02 4.397032e+01 7.495198e+03
2.178955e-02 4.412582e+01 7.395820e+03
2.197266e-02 4.427615e+01 7.297849e+03
2.270508e-02 4.482698e+01 6.919642e+03
2.343750e-02 4.529979e+01 6.562417e+03
2.416992e-02 4.569846e+01 6.225027e+03
2.490234e-02 4.602695e+01 5.906386e+03
2.563477e-02 4.628929e+01 5.605469e+03
2.636719e-02 4.648955e+01 5.321302e+03
2.709961e-02 4.663182e+01 5.052966e+03
2.783203e-02 4.672014e+01 4.799593e+03
2.856445e-02 4.675852e+01 4.560360e+03
2.929688e-02 4.675092e+01 4.334487e+03
3.002930e-02 4.670120e+01 4.121240e+03
3.076172e-02 4.661315e+01 3.919921e+03
3.149414e-02 4.649042e+01 3.729873e+03
3.222656e-02 4.633658e+01 3.550472e+03
3.295898e-02 4.615505e+01 3.381129e+03
3.369141e-02 4.594915e+01 3.221286e+03
3.442383e-02 4.572203e+01 3.070417e+03
3.515625e-02 4.547674e+01 2.928022e+03
3.588867e-02 4.521616e+01 2.793631e+03
3.662109e-02 4.494303e+01 2.666796e+03
3.680420e-02 4.487309e+01 2.636219e+03
3.698730e-02 4.480258e+01 2.606080e+03
3.717041e-02 4.473152e+01 2.576375e+03
3.735352e-02 4.465996e+01 2.547097e+03
3.753662e-02 4.458793e+01 2.518240e+03
3.771973e-02 4.451548e+01 2.489798e+03
3.790283e-02 4.444262e+01 2.461765e+03
3.808594e-02 4.436942e+01 2.434134e+03
3.826904e-02 4.429589e+01 2.406902e+03
3.845215e-02 4.422207e+01 2.380061e+03
3.863525e-02 4.414800e+01 2.353605e+03
3.881836e-02 4.407372e+01 2.327531e+03
3.900146e-02 4.399924e+01 2.301831e+03
3.918457e-02 4.392462e+01 2.276502e+03
3.936768e-02 4.384987e+01 2.251536e+03
3.955078e-02 4.377504e+01 2.226930e+03
3.973389e-02 4.370015e+01 2.202678e+03
3.991699e-02 4.362523e+01 2.178774e+03
4.010010e-02 4.355031e+01 2.155215e+03
4.028320e-02 4.347543e+01 2.131994e+03
4.064941e-02 4.332587e+01 2.086550e+03
4.101562e-02 4.317679e+01 2.042405e+03
4.138184e-02 4.302840e+01 1.999520e+03
4.174805e-02 4.288090e+01 1.957860e+03
4.211426e-02 4.273450e+01 1.917390e+03
4.248047e-02 4.258940e+01 1.878076e+03
4.284668e-02 4.244578e+01 1.839884e+03
4.321289e-02 4.230382e+01 1.802781e+03
4.357910e-02 4.216369e+01 1.766738e+03
4.394531e-02 4.202555e+01 1.731723e+03
4.467773e-02 4.175587e+01 1.664659e+03
4.541016e-02 4.149594e+01 1.601363e+03
4.614258e-02 4.124683e+01 1.541619e+03
4.687500e-02 4.100948e+01 1.485224e+03
4.760742e-02 4.078475e+01 1.431985e+03
4.833984e-02 4.057338e+01 1.381722e+03
4.907227e-02 4.037603e+01 1.334263e+03
4.980469e-02 4.019328e+01 1.289446e+03
5.053711e-02 4.002562e+01 1.247117e+03
5.126953e-02 3.987344e+01 1.207133e+03
5.200195e-02 3.973709e+01 1.169356e+03
5.273438e-02 3.961681e+01 1.133658e+03
5.346680e-02 3.951282e+01 1.099917e+03
5.419922e-02 3.942523e+01 1.068017e+03
5.493164e-02 3.935411e+01 1.037851e+03
5.566406e-02 3.929949e+01 1.009316e+03
5.639648e-02 3.926131e+01 9.823152e+02
5.712891e-02 3.923950e+01 9.567572e+02
5.786133e-02 3.923391e+01 9.325560e+02
5.859375e-02 3.924437e+01 9.096304e+02
5.932617e-02 3.927068e+01 8.879037e+02
6.005859e-02 3.931256e+01 8.673037e+02
6.079102e-02 3.936975e+01 8.477621e+02
6.152344e-02 3.944193e+01 8.292149e+02
6.225586e-02 3.952875e+01 8.116013e+02
6.298828e-02 3.962984e+01 7.948642e+02
6.372070e-02 3.974482e+01 7.789499e+02
6.445312e-02 3.987327e+01 7.638077e+02
6.518555e-02 4.001477e+01 7.493899e+02
6.591797e-02 4.016886e+01 7.356514e+02
6.665039e-02 4.033510e+01 7.225499e+02
6.738281e-02 4.051300e+01 7.100456e+02
6.811523e-02 4.070208e+01 6.981009e+02
6.884766e-02 4.090186e+01 6.866807e+02
6.958008e-02 4.111183e+01 6.757516e+02
7.031250e-02 4.133149e+01 6.652825e+02
7.104492e-02 4.156034e+01 6.552441e+02
7.177734e-02 4.179786e+01 6.456087e+02
7.250977e-02 4.204354e+01 6.363505e+02
7.324219e-02 4.229687e+01 6.274452e+02
7.360840e-02 4.242625e+01 6.231176e+02
7.397461e-02 4.255734e+01 6.188698e+02
7.434082e-02 4.269010e+01 6.146991e+02
7.470703e-02 4.282444e+01 6.106030e+02
7.507324e-02 4.296032e+01 6.065789e+02
7.543945e-02 4.309767e+01 6.026246e+02
7.580566e-02 4.323642e+01 5.987376e+02
7.617188e-02 4.337652e+01 5.949158e+02
7.653809e-02 4.351789e+01 5.911569e+02
7.690430e-02 4.366049e+01 5.874589e+02
7.708740e-02 4.373222e+01 5.856321e+02
7.727051e-02 4.380424e+01 5.838197e+02
7.745361e-02 4.387654e+01 5.820216e+02
7.763672e-02 4.394909e+01 5.802374e+02
7.781982e-02 4.402191e+01 5.784670e+02
7.800293e-02 4.409498e+01 5.767100e+02
7.818604e-02 4.416830e+01 5.749663e+02
7.836914e-02 4.424185e+01 5.732357e+02
7.855225e-02 4.431563e+01 5.715179e+02
7.873535e-02 4.438963e+01 5.698127e+02
7.891846e-02 4.446384e+01 5.681198e+02
7.910156e-02 4.453826e+01 5.664392e+02
7.928467e-02 4.461289e+01 5.647705e+02
7.946777e-02 4.468770e+01 5.631136e+02
7.965088e-02 4.476270e+01 5.614683e+02
7.983398e-02 4.483788e+01 5.598344e+02
8.001709e-02 4.491322e+01 5.582116e+02
8.020020e-02 4.498873e+01 5.565998e+02
8.038330e-02 4.506440e+01 5.549988e+02
8.056641e-02 4.514022e+01 5.534085e+02
8.129883e-02 4.544483e+01 5.471496e+02
8.203125e-02 4.575128e+01 5.410466e+02
8.276367e-02 4.605911e+01 5.350892e+02
8.349609e-02 4.636791e+01 5.292677e+02
8.422852e-02 4.667726e+01 5.235730e+02
8.496094e-02 4.698675e+01 5.179966e+02
8.569336e-02 4.729598e+01 5.125308e+02
8.642578e-02 4.760456e+01 5.071683e+02
8.715820e-02 4.791213e+01 5.019022e+02
8.789062e-02 4.821832e+01 4.967262e+02
8.935547e-02 4.882515e+01 4.866217e+02
9.082031e-02 4.942238e+01 4.768127e+02
9.228516e-02 5.000750e+01 4.672632e+02
9.375000e-02 5.057822e+01 4.579427e+02
9.521484e-02 5.113239e+01 4.488249e+02
9.667969e-02 5.166808e+01 4.398878e+02
9.814453e-02 5.218350e+01 4.311130e+02
9.960938e-02 5.267709e+01 4.224851e+02
1.010742e-01 5.314740e+01 4.139915e+02
1.025391e-01 5.359319e+01 4.056216e+02
1.040039e-01 5.401337e+01 3.973673e+02
1.054688e-01 5.440700e+01 3.892219e+02
1.069336e-01 5.477328e+01 3.811804e+02
1.083984e-01 5.511158e+01 3.732389e+02
1.098633e-01 5.542137e+01 3.653947e+02
1.113281e-01 5.570228e+01 3.576460e+02
1.127930e-01 5.595405e+01 3.499916e+02
1.142578e-01 5.617653e+01 3.424311e+02
1.157227e-01 5.636968e+01 3.349646e+02
1.171875e-01 5.653359e+01 3.275926e+02
1.179199e-01 5.660462e+01 3.239423e+02
1.186523e-01 5.666840e+01 3.203159e+02
1.193848e-01 5.672497e+01 3.167135e+02
1.201172e-01 5.677437e+01 3.131354e+02
1.208496e-01 5.681664e+01 3.095816e+02
1.215820e-01 5.685183e+01 3.060524e+02
1.223145e-01 5.687999e+01 3.025479e+02
1.230469e-01 5.690119e+01 2.990682e+02
1.237793e-01 5.691548e+01 2.956137e+02
1.245117e-01 5.692293e+01 2.921843e+02
1.252441e-01 5.692361e+01 2.887804e+02
1.259766e-01 5.691759e+01 2.854021e+02
1.267090e-01 5.690496e+01 2.820496e+02
1.274414e-01 5.688579e+01 2.787230e+02
1.281738e-01 5.686016e+01 2.754226e+02
1.289062e-01 5.682817e+01 2.721484e+02
1.296387e-01 5.678990e+01 2.689008e+02
1.303711e-01 5.674544e+01 2.656797e+02
1.311035e-01 5.669488e+01 2.624855e+02
1.318359e-01 5.663833e+01 2.593182e+02
1.333008e-01 5.650765e+01 2.530650e+02
1.347656e-01 5.635420e+01 2.469211e+02
1.362305e-01 5.617884e+01 2.408876e+02
1.376953e-01 5.598242e+01 2.349652e+02
1.391602e-01 5.576585e+01 2.291546e+02
1.406250e-01 5.553002e+01 2.234565e+02
1.420898e-01 5.527587e+01 2.178711e+02
1.435547e-01 5.500432e+01 2.123989e+02
1.450195e-01 5.471631e+01 2.070399e+02
1.464844e-01 5.441278e+01 2.017941e+02
1.472168e-01 5.425549e+01 1.992136e+02
1.479492e-01 5.409467e+01 1.966615e+02
1.486816e-01 5.393044e+01 1.941375e+02
1.494141e-01 5.376292e+01 1.916417e+02
1.501465e-01 5.359222e+01 1.891740e+02
1.508789e-01 5.341846e+01 1.867345e+02
1.516113e-01 5.324176e+01 1.843229e+02
1.523438e-01 5.306223e+01 1.819392e+02
1.530762e-01 5.287999e+01 1.795835e+02
1.538086e-01 5.269515e+01 1.772554e+02
1.539917e-01 5.264854e+01 1.766778e+02
1.541748e-01 5.260179e+01 1.761018e+02
1.543579e-01 5.255488e+01 1.755276e+02
1.545410e-01 5.250782e+01 1.749551e+02
1.547241e-01 5.246061e+01 1.743843e+02
1.549072e-01 5.241326e+01 1.738153e+02
1.550903e-01 5.236576e+01 1.732479e+02
1.552734e-01 5.231812e+01 1.726823e+02
1.554565e-01 5.227033e+01 1.721184e+02
1.556396e-01 5.222241e+01 1.715563e+02
1.558228e-01 5.217435e+01 1.709958e+02
1.560059e-01 5.212615e+01 1.704370e+02
1.561890e-01 5.207782e+01 1.698800e+02
1.563721e-01 5.202936e+01 1.693247e+02
1.565552e-01 5.198077e+01 1.687710e+02
1.567383e-01 5.193204e+01 1.682191e+02
1.569214e-01 5.188319e+01 1.676689e+02
1.571045e-01 5.183422e+01 1.671204e+02
1.572876e-01 5.178511e+01 1.665736e+02
1.574707e-01 5.173589e+01 1.660285e+02
1.578369e-01 5.163708e+01 1.649433e+02
1.582031e-01 5.153781e+01 1.638649e+02
1.585693e-01 5.143807e+01 1.627933e+02
1.589355e-01 5.133790e+01 1.617283e+02
1.593018e-01 5.123729e+01 1.606701e+02
1.596680e-01 5.113627e+01 1.596186e+02
1.600342e-01 5.103485e+01 1.585738e+02
1.604004e-01 5.093303e+01 1.575356e+02
1.607666e-01 5.083084e+01 1.565041e+02
1.611328e-01 5.072829e+01 1.554792e+02
1.625977e-01 5.031470e+01 1.514455e+02
1.640625e-01 4.989632e+01 1.475163e+02
1.655273e-01 4.947393e+01 1.436902e+02
1.669922e-01 4.904833e+01 1.399658e+02
1.684570e-01 4.862025e+01 1.363418e+02
1.699219e-01 4.819043e+01 1.328166e+02
1.713867e-01 4.775958e+01 1.293887e+02
1.728516e-01 4.732838e+01 1.260565e+02
1.743164e-01 4.689749e+01 1.228183e+02
1.757812e-01 4.646754e+01 1.196726e+02
1.772461e-01 4.603915e+01 1.166176e+02
1.787109e-01 4.561291e+01 1.136516e+02
1.801758e-01 4.518939e+01 1.107730e+02
1.816406e-01 4.476911e+01 1.079798e+02
1.831055e-01 4.435259e+01 1.052705e+02
1.845703e-01 4.394033e+01 1.026431e+02
1.860352e-01 4.353279e+01 1.000960e+02
1.875000e-01 4.313042e+01 9.762730e+01
1.889648e-01 4.273363e+01 9.523529e+01
1.904297e-01 4.234282e+01 9.291816e+01
1.918945e-01 4.195836e+01 9.067414e+01
1.933594e-01 4.158060e+01 8.850147e+01
1.948242e-01 4.120987e+01 8.639837e+01
1.962891e-01 4.084648e+01 8.436310e+01
1.977539e-01 4.049069e+01 8.239393e+01
1.992188e-01 4.014279e+01 8.048913e+01
2.006836e-01 3.980300e+01 7.864701e+01
2.021484e-01 3.947156e+01 7.686588e+01
2.036133e-01 3.914865e+01 7.514407e+01
2.050781e-01 3.883447e+01 7.347994e+01
2.065430e-01 3.852917e+01 7.187186e+01
2.080078e-01 3.823289e+01 7.031824e+01
2.094727e-01 3.794577e+01 6.881750e+01
2.109375e-01 3.766792e+01 6.736808e+01
2.124023e-01 3.739942e+01 6.596847e+01
2.138672e-01 3.714035e+01 6.461716e+01
2.153320e-01 3.689078e+01 6.331268e+01
2.167969e-01 3.665074e+01 6.205358e+01
2.182617e-01 3.642027e+01 6.083845e+01
2.197266e-01 3.619939e+01 5.966591e+01
2.211914e-01 3.598809e+01 5.853457e+01
2.226562e-01 3.578638e+01 5.744313e+01
2.241211e-01 3.559422e+01 5.639026e+01
2.255859e-01 3.541158e+01 5.537471e+01
2.270508e-01 3.523843e+01 5.439521e+01
2.285156e-01 3.507469e+01 5.345055e+01
2.299805e-01 3.492032e+01 5.253955e+01
2.314453e-01 3.477522e+01 5.166105e+01
2.329102e-01 3.463932e+01 5.081391e+01
2.343750e-01 3.451252e+01 4.999704e+01
2.358398e-01 3.439472e+01 4.920934e+01
2.373047e-01 3.428581e+01 4.844979e+01
2.387695e-01 3.418566e+01 4.771734e+01
2.402344e-01 3.409415e+01 4.701103e+01
2.416992e-01 3.401116e+01 4.632987e+01
2.431641e-01 3.393654e+01 4.567294e+01
2.446289e-01 3.387015e+01 4.503931e+01
2.460938e-01 3.381184e+01 4.442811e+01
2.475586e-01 3.376146e+01 4.383846e+01
2.490234e-01 3.371884e+01 4.326954e+01
2.504883e-01 3.368383e+01 4.272054e+01
2.519531e-01 3.365625e+01 4.219066e+01
2.534180e-01 3.363594e+01 4.167915e+01
2.548828e-01 3.362272e+01 4.118527e+01
2.563477e-01 3.361642e+01 4.070830e+01
2.578125e-01 3.361686e+01 4.024754e+01
2.592773e-01 3.362385e+01 3.980233e+01
2.607422e-01 3.363722e+01 3.937202e+01
2.622070e-01 3.365678e+01 3.895597e+01
2.636719e-01 3.368234e+01 3.855358e+01
2.666016e-01 3.375071e+01 3.778745e+01
2.695312e-01 3.384083e+01 3.706917e+01
2.724609e-01 3.395119e+01 3.639458e+01
2.753906e-01 3.408028e+01 3.575979e+01
2.783203e-01 3.422658e+01 3.516121e+01
2.812500e-01 3.438861e+01 3.459550e+01
2.841797e-01 3.456489e+01 3.405957e+01
2.871094e-01 3.475396e+01 3.355056e+01
2.900391e-01 3.495442e+01 3.306581e+01
2.929688e-01 3.516485e+01 3.260291e+01
2.944336e-01 3.527339e+01 3.237894e+01
2.958984e-01 3.538391e+01 3.215960e+01
2.973633e-01 3.549626e+01 3.194465e+01
2.988281e-01 3.561028e+01 3.173383e+01
3.002930e-01 3.572580e+01 3.152693e+01
3.017578e-01 3.584266e+01 3.132372e+01
3.032227e-01 3.596073e+01 3.112399e+01
3.046875e-01 3.607983e+01 3.092754e+01
3.061523e-01 3.619984e+01 3.073417e+01
3.076172e-01 3.632059e+01 3.054371e+01
3.079834e-01 3.635088e+01 3.049653e+01
3.083496e-01 3.638121e+01 3.044952e+01
3.087158e-01 3.641156e+01 3.040267e+01
3.090820e-01 3.644196e+01 3.035598e+01
3.094482e-01 3.647237e+01 3.030946e+01
3.098145e-01 3.650282e+01 3.026309e+01
3.101807e-01 3.653329e+01 3.021687e+01
3.105469e-01 3.656379e+01 3.017081e+01
3.109131e-01 3.659431e+01 3.012490e+01
3.112793e-01 3.662484e+01 3.007914e+01
3.116455e-01 3.665539e+01 3.003352e+01
3.120117e-01 3.668596e+01 2.998805e+01
3.123779e-01 3.671654e+01 2.994271e+01
3.127441e-01 3.674712e+01 2.989752e+01
3.131104e-01 3.677772e+01 2.985246e+01
3.134766e-01 3.680833e+01 2.980753e+01
3.138428e-01 3.683894e+01 2.976274e+01
3.142090e-01 3.686955e+01 2.971808e+01
3.145752e-01 3.690016e+01 2.967354e+01
3.149414e-01 3.693077e+01 2.962913e+01
3.156738e-01 3.699197e+01 2.954068e+01
3.164062e-01 3.705315e+01 2.945270e+01
3.171387e-01 3.711428e+01 2.936519e+01
3.178711e-01 3.717535e+01 2.927812e+01
3.186035e-01 3.723635e+01 2.919148e+01
3.193359e-01 3.729725e+01 2.910525e+01
3.200684e-01 3.735805e+01 2.901943e+01
3.208008e-01 3.741873e+01 2.893399e+01
3.215332e-01 3.747927e+01 2.884892e+01
3.222656e-01 3.753967e+01 2.876422e+01
3.251953e-01 3.777950e+01 2.842875e+01
3.281250e-01 3.801587e+01 2.809807e+01
3.310547e-01 3.824799e+01 2.777150e+01
3.339844e-01 3.847509e+01 2.744843e+01
3.369141e-01 3.869644e+01 2.712832e+01
3.398438e-01 3.891139e+01 2.681071e+01
3.427734e-01 3.911931e+01 2.649519e+01
3.457031e-01 3.931962e+01 2.618140e+01
3.486328e-01 3.951179e+01 2.586904e+01
3.515625e-01 3.969534e+01 2.555787e+01
3.544922e-01 3.986982e+01 2.524765e+01
3.574219e-01 4.003481e+01 2.493823e+01
3.603516e-01 4.018996e+01 2.462946e+01
3.632812e-01 4.033494e+01 2.432123e+01
3.662109e-01 4.046946e+01 2.401347e+01
3.691406e-01 4.059326e+01 2.370611e+01
3.720703e-01 4.070613e+01 2.339914e+01
3.750000e-01 4.080787e+01 2.309253e+01
3.779297e-01 4.089835e+01 2.278630e+01
3.808594e-01 4.097743e+01 2.248048e+01
3.837891e-01 4.104501e+01 2.217509e+01
3.867188e-01 4.110104e+01 2.187019e+01
3.896484e-01 4.114547e+01 2.156584e+01
3.925781e-01 4.117829e+01 2.126211e+01
3.955078e-01 4.119951e+01 2.095907e+01
3.984375e-01 4.120916e+01 2.065682e+01
4.013672e-01 4.120728e+01 2.035543e+01
4.042969e-01 4.119396e+01 2.005501e+01
4.072266e-01 4.116929e+01 1.975565e+01
4.101562e-01 4.113336e+01 1.945744e+01
4.130859e-01 4.108632e+01 1.916049e+01
4.160156e-01 4.102830e+01 1.886489e+01
4.189453e-01 4.095945e+01 1.857076e+01
4.218750e-01 4.087994e+01 1.827817e+01
4.248047e-01 4.078996e+01 1.798725e+01
4.277344e-01 4.068968e+01 1.769808e+01
4.306641e-01 4.057932e+01 1.741076e+01
4.335938e-01 4.045909e+01 1.712538e+01
4.365234e-01 4.032919e+01 1.684203e+01
4.394531e-01 4.018987e+01 1.656081e+01
4.423828e-01 4.004134e+01 1.628180e+01
4.453125e-01 3.988386e+01 1.600507e+01
4.482422e-01 3.971767e+01 1.573071e+01
4.511719e-01 3.954301e+01 1.545880e+01
4.541016e-01 3.936014e+01 1.518940e+01
4.570312e-01 3.916931e+01 1.492259e+01
4.599609e-01 3.897079e+01 1.465843e+01
4.628906e-01 3.876484e+01 1.439698e+01
4.658203e-01 3.855172e+01 1.413830e+01
4.687500e-01 3.833170e+01 1.388244e+01
4.716797e-01 3.810504e+01 1.362944e+01
4.746094e-01 3.787199e+01 1.337937e+01
4.775391e-01 3.763282e+01 1.313225e+01
4.804688e-01 3.738781e+01 1.288813e+01
4.833984e-01 3.713720e+01 1.264704e+01
4.863281e-01 3.688127e+01 1.240901e+01
4.892578e-01 3.662027e+01 1.217408e+01
4.921875e-01 3.635445e+01 1.194226e+01
4.951172e-01 3.608407e+01 1.171358e+01
4.980469e-01 3.580939e+01 1.148806e+01
5.009766e-01 3.553064e+01 1.126571e+01
5.039062e-01 3.524808e+01 1.104654e+01
5.068359e-01 3.496195e+01 1.083056e+01
5.097656e-01 3.467248e+01 1.061779e+01
5.126953e-01 3.437992e+01 1.040821e+01
5.156250e-01 3.408448e+01 1.020185e+01
5.185547e-01 3.378640e+01 9.998685e+00
5.214844e-01 3.348589e+01 9.798722e+00
5.244141e-01 3.318319e+01 9.601953e+00
5.273438e-01 3.287849e+01 9.408371e+00
5.332031e-01 3.226396e+01 9.030722e+00
5.390625e-01 3.164392e+01 8.665671e+00
5.449219e-01 3.101991e+01 8.313084e+00
5.507812e-01 3.039339e+01 7.972802e+00
5.566406e-01 2.976576e+01 7.644644e+00
5.625000e-01 2.913831e+01 7.328406e+00
5.683594e-01 2.851230e+01 7.023868e+00
5.742188e-01 2.788887e+01 6.730793e+00
5.800781e-01 2.726910e+01 6.448934e+00
5.859375e-01 2.665400e+01 6.178028e+00
5.888672e-01 2.634849e+01 6.046599e+00
5.917969e-01 2.604450e+01 5.917808e+00
5.947266e-01 2.574213e+01 5.791618e+00
5.976562e-01 2.544147e+01 5.667995e+00
6.005859e-01 2.514263e+01 5.546903e+00
6.035156e-01 2.484571e+01 5.428307e+00
6.064453e-01 2.455078e+01 5.312171e+00
6.093750e-01 2.425793e+01 5.198459e+00
6.123047e-01 2.396725e+01 5.087133e+00
6.152344e-01 2.367881e+01 4.978159e+00
6.159668e-01 2.360706e+01 4.951278e+00
6.166992e-01 2.353545e+01 4.924542e+00
6.174316e-01 2.346399e+01 4.897949e+00
